clade_id	n_members	median_mash	min_mash	max_mash
0_0000	100	0.146706	0.000000	0.328965
0_0001	100	0.104343	0.000000	0.178964
0_0002	100	0.045898	0.000000	0.233808
0_0003	100	0.180587	0.000000	0.248764
0_0004	100	0.042984	0.000000	1.000000
0_0005	100	0.000218	0.000000	1.000000
0_0006	100	0.000074	0.000000	0.328965
0_0007	100	0.131683	0.000000	1.000000
0_0008	100	0.160198	0.000000	1.000000
0_0009	100	0.205675	0.000000	1.000000
0_0010	100	0.143644	0.000000	0.273629
0_0011	100	0.175506	0.000000	0.328965
0_0012	100	0.079318	0.000000	0.245371
0_0013	100	0.076375	0.000000	0.372583
0_0014	100	0.041059	0.000000	0.248764
0_0015	100	0.166150	0.000000	0.405585
0_0016	100	0.040696	0.000000	0.226680
0_0017	100	0.004916	0.000000	0.283502
0_0018	100	0.000000	0.000000	0.123536
0_0019	100	0.046668	0.000000	0.186292
0_0020	100	0.001163	0.000000	0.071420
0_0021	100	0.042473	0.000000	1.000000
0_0022	100	0.042940	0.000000	0.076721
0_0023	100	0.056108	0.000000	0.328965
0_0024	100	0.149146	0.000000	1.000000
0_0025	100	0.032554	0.000000	0.312952
0_0026	100	0.089257	0.000000	1.000000
0_0027	100	0.044264	0.000000	0.085471
0_0028	100	0.112518	0.000000	1.000000
0_0029	100	0.050565	0.000000	0.215885
0_0030	100	0.004493	0.000000	0.258493
0_0031	100	0.220489	0.000000	1.000000
0_0032	100	0.118097	0.000000	1.000000
0_0033	100	0.106365	0.000000	1.000000
0_0034	100	0.067824	0.000000	1.000000
0_0035	100	0.000127	0.000000	1.000000
0_0036	100	0.220489	0.000000	1.000000
0_0037	100	0.156865	0.000000	1.000000
0_0038	100	0.163504	0.000000	1.000000
0_0039	100	0.166150	0.000000	1.000000
0_0040	100	0.000002	0.000000	0.171602
0_0041	100	0.000002	0.000000	0.171263
0_0042	100	0.000021	0.000000	0.171263
0_0043	100	0.160198	0.000000	1.000000
0_0044	100	0.074106	0.000000	1.000000
0_0045	100	0.051979	0.000000	0.090931
0_0046	100	0.024976	0.000000	0.066060
0_0047	100	0.017629	0.000000	0.080920
0_0048	100	0.111519	0.000000	1.000000
0_0049	100	0.000000	0.000000	0.000026
0_0050	100	0.000000	0.000000	0.000005
0_0051	100	0.000005	0.000000	0.000057
0_0052	100	0.000005	0.000000	0.000129
0_0053	100	0.000029	0.000000	0.000096
0_0054	100	0.000026	0.000000	0.060364
0_0055	100	0.000005	0.000000	0.086151
0_0056	100	0.056031	0.000000	0.102486
0_0057	100	0.000041	0.000000	0.045841
0_0058	100	0.000064	0.000000	0.060741
0_0059	100	0.000052	0.000000	0.183572
0_0060	100	0.000614	0.000000	0.036166
0_0061	100	0.026827	0.000000	0.040037
0_0062	100	0.029245	0.000000	0.046467
0_0063	100	0.000299	0.000000	0.041497
0_0064	100	0.028716	0.000000	0.051666
0_0065	100	0.035563	0.000000	0.202271
0_0066	100	0.034147	0.000000	0.213325
0_0067	100	0.015665	0.000000	0.175137
0_0068	100	0.000005	0.000000	0.000084
0_0069	100	0.000005	0.000000	0.000476
0_0070	100	0.037736	0.000000	0.172288
0_0071	100	0.124131	0.000000	1.000000
0_0072	100	0.007085	0.000000	0.030707
0_0073	100	0.155405	0.000000	1.000000
0_0074	100	0.001863	0.000000	0.230110
0_0075	100	0.032968	0.000000	1.000000
0_0076	100	0.095042	0.000000	0.159669
0_0077	100	0.000002	0.000000	0.000196
0_0078	100	0.090711	0.000000	0.157613
0_0079	100	0.146116	0.000000	1.000000
0_0080	100	0.000057	0.000000	0.000170
0_0081	100	0.000038	0.000000	0.000211
0_0082	100	0.118306	0.000000	0.213325
0_0083	100	0.123183	0.000000	0.256381
0_0084	100	0.173691	0.000000	1.000000
0_0085	100	0.196705	0.000000	1.000000
0_0086	100	0.072513	0.000000	0.268030
0_0087	100	0.102340	0.000000	1.000000
0_0088	100	0.062739	0.000000	1.000000
0_0089	100	0.046779	0.000000	1.000000
0_0090	100	0.126466	0.000000	1.000000
0_0091	100	0.043156	0.000000	1.000000
0_0092	100	0.016754	0.000000	0.184912
0_0093	100	0.183134	0.000000	1.000000
0_0094	100	0.025387	0.000000	1.000000
0_0095	86	0.009800	0.000000	1.000000
0_0096	100	0.040919	0.000000	0.276697
0_0097	100	0.037837	0.000000	0.405585
0_0098	100	0.040947	0.000000	0.099335
0_0099	100	0.054740	0.000000	0.206387
0_0100	25	0.023152	0.000000	1.000000
0_0101	100	0.103293	0.000000	1.000000
0_0102	98	0.141653	0.000000	1.000000
0_0103	100	0.041712	0.000000	0.181421
0_0104	100	0.063603	0.000000	1.000000
0_0105	100	0.000000	0.000000	0.000520
0_0106	100	0.000000	0.000000	0.000010
0_0107	100	0.000010	0.000000	0.000010
0_0108	100	0.000010	0.000000	0.001925
0_0109	100	0.000010	0.000000	0.002089
0_0110	100	0.000010	0.000000	0.002830
0_0111	100	0.000010	0.000000	0.002010
0_0112	100	0.000010	0.000000	0.002016
0_0113	100	0.000010	0.000000	0.001922
0_0114	100	0.000010	0.000000	0.000308
0_0115	100	0.000555	0.000000	0.014683
0_0116	100	0.000426	0.000000	0.012279
0_0117	100	0.006036	0.000000	0.405585
0_0118	100	0.042850	0.000000	1.000000
0_0119	28	0.039049	0.000000	1.000000
0_0120	100	0.028979	0.000000	0.250557
0_0121	100	0.137107	0.000000	1.000000
0_0122	100	0.026682	0.000000	0.195553
0_0123	100	0.127812	0.000000	1.000000
0_0124	100	0.154692	0.000000	1.000000
0_0125	100	0.169941	0.000000	1.000000
0_0126	95	0.165276	0.000000	1.000000
0_0127	100	0.065755	0.000000	1.000000
0_0128	43	0.036967	0.000000	1.000000
0_0129	78	0.146149	0.000000	1.000000
0_0130	100	0.077522	0.000000	1.000000
0_0131	100	0.055255	0.000000	1.000000
0_0132	60	0.062079	0.000000	1.000000
0_0133	100	0.047327	0.000000	1.000000
0_0134	100	0.068975	0.000000	1.000000
0_0135	100	0.146312	0.000000	1.000000
0_0136	100	0.040544	0.000000	1.000000
0_0137	100	0.068975	0.000000	0.263022
0_0138	11	0.133593	0.000000	0.235469
0_0139	14	0.019454	0.000000	0.185367
0_0140	100	0.086594	0.000000	1.000000
0_0141	100	0.138079	0.000000	1.000000
0_0142	100	0.113729	0.000000	1.000000
0_0143	100	0.038282	0.000000	1.000000
0_0144	34	0.167376	0.000000	1.000000
0_0145	100	0.000007	0.000000	0.133272
0_0146	100	0.032957	0.000000	0.139576
0_0147	100	0.050820	0.000000	1.000000
0_0148	100	0.050200	0.000000	0.291447
0_0149	100	0.039392	0.000000	0.291447
0_0150	100	0.075579	0.000000	1.000000
0_0151	100	0.000007	0.000000	0.139239
0_0152	79	0.161547	0.000000	1.000000
0_0153	100	0.015844	0.000000	0.146509
0_0154	100	0.000002	0.000000	0.001278
0_0155	100	0.000002	0.000000	0.000076
0_0156	100	0.000002	0.000000	0.000115
0_0157	100	0.000002	0.000000	0.000144
0_0158	100	0.000021	0.000000	0.026870
0_0159	100	0.000021	0.000000	0.001431
0_0160	100	0.000002	0.000000	0.001394
0_0161	100	0.004838	0.000000	0.210114
0_0162	100	0.000079	0.000000	0.119583
0_0163	100	0.003777	0.000000	0.028027
0_0164	26	0.081179	0.000000	1.000000
0_0165	100	0.023716	0.000000	0.247037
0_0166	100	0.045922	0.000000	0.069483
0_0167	100	0.002263	0.000000	0.006779
0_0168	80	0.000086	0.000000	1.000000
0_0169	100	0.033540	0.000000	1.000000
0_0170	100	0.001867	0.000000	0.263022
0_0171	100	0.005751	0.000000	0.035846
0_0172	100	0.004310	0.000000	0.023891
0_0173	100	0.024121	0.000000	0.254359
0_0174	100	0.001858	0.000000	0.006646
0_0175	100	0.002813	0.000000	0.007457
0_0176	100	0.004200	0.000000	0.138243
0_0177	100	0.000011	0.000000	0.003984
0_0178	100	0.000011	0.000000	0.000011
0_0179	100	0.000005	0.000000	0.000011
0_0180	100	0.000011	0.000000	0.000011
0_0181	100	0.002042	0.000000	0.024754
0_0182	100	0.048149	0.000000	1.000000
0_0183	100	0.020463	0.000000	0.250557
0_0184	100	0.045114	0.000000	1.000000
0_0185	100	0.044467	0.000000	0.180587
0_0186	46	0.018079	0.000000	0.077141
0_0187	100	0.000013	0.000000	0.025565
0_0188	100	0.000013	0.000000	0.033301
0_0189	100	0.000013	0.000000	0.000138
0_0190	100	0.000013	0.000000	0.001274
0_0191	91	0.037510	0.000000	1.000000
0_0192	100	0.031661	0.000000	0.164370
0_0193	100	0.000127	0.000000	0.116861
0_0194	100	0.044357	0.000000	1.000000
0_0195	100	0.008865	0.000000	0.137915
0_0196	100	0.007622	0.000000	0.162376
0_0197	42	0.233808	0.000000	0.339586
0_0198	100	0.072031	0.000000	1.000000
0_0199	100	0.000209	0.000000	0.061584
0_0200	100	0.107617	0.000000	0.132399
0_0201	100	0.108738	0.000000	0.320287
0_0202	100	0.050293	0.000000	0.205675
0_0203	100	0.019951	0.000000	0.049082
0_0204	5	0.240698	0.000000	1.000000
0_0205	100	0.033247	0.000000	0.111789
0_0206	53	0.041776	0.000000	1.000000
0_0207	23	0.222464	0.000000	1.000000
0_0208	100	0.172984	0.000000	1.000000
0_0209	24	0.221466	0.000000	1.000000
0_0210	15	0.167688	0.000000	0.239237
0_0211	100	0.025993	0.000000	0.171944
0_0212	100	0.058000	0.000000	1.000000
0_0213	100	0.109161	0.000000	1.000000
0_0214	100	0.025755	0.000000	0.062367
0_0215	15	0.124131	0.000000	0.153070
0_0216	14	0.146312	0.000000	0.174408
0_0217	100	0.000002	0.000000	0.000629
0_0218	100	0.042276	0.000000	0.243761
0_0219	100	0.000002	0.000000	0.220489
0_0220	100	0.089151	0.000000	1.000000
0_0221	100	0.115271	0.000000	1.000000
0_0222	34	0.215016	0.000000	1.000000
0_0223	100	0.022817	0.000000	1.000000
0_0224	10	0.176630	0.000000	1.000000
0_0225	100	0.027864	0.000000	0.177782
0_0226	100	0.077227	0.000000	0.123066
0_0227	35	0.222822	0.000000	1.000000
0_0228	100	0.001012	0.000000	0.094079
0_0229	17	0.224004	0.000000	1.000000
0_0230	43	0.139260	0.000000	1.000000
0_0231	100	0.000145	0.000000	0.081477
0_0232	100	0.000014	0.000000	0.019333
0_0233	100	0.000014	0.000000	0.013374
0_0234	100	0.000014	0.000000	0.016464
0_0235	100	0.000014	0.000000	0.010111
0_0236	100	0.003212	0.000000	0.168318
0_0237	100	0.000016	0.000000	0.005227
0_0238	60	0.000016	0.000000	0.312952
0_0239	100	0.000023	0.000000	0.000506
0_0240	100	0.042409	0.000000	0.147169
0_0241	100	0.065799	0.000000	1.000000
0_0242	3	0.223483	0.185827	0.233808
0_0243	100	0.018576	0.000000	1.000000
0_0244	48	0.136709	0.000000	1.000000
0_0245	100	0.032438	0.000000	0.178567
0_0246	100	0.034881	0.000000	0.055277
0_0247	100	0.032000	0.000000	0.052355
0_0248	100	0.032559	0.000000	0.049118
0_0249	100	0.115957	0.000000	0.172288
0_0250	100	0.168637	0.000000	1.000000
0_0251	100	0.134313	0.000000	0.155645
0_0252	74	0.200342	0.000000	1.000000
0_0253	100	0.040187	0.000000	0.136788
0_0254	100	0.000017	0.000000	0.039133
0_0255	100	0.000017	0.000000	0.040645
0_0256	100	0.000017	0.000000	0.210114
0_0257	100	0.038585	0.000000	0.215016
0_0258	68	0.007913	0.000000	1.000000
0_0259	73	0.121122	0.000000	1.000000
0_0261	100	0.083772	0.000000	1.000000
0_0262	17	0.107726	0.000000	0.149146
0_0263	60	0.203062	0.000000	1.000000
0_0264	9	0.020765	0.000010	0.041870
0_0265	41	0.167688	0.000000	0.300994
0_0266	77	0.043648	0.000000	1.000000
0_0267	8	0.193877	0.000000	1.000000
0_0268	2	0.134464	0.134464	0.134464
0_0269	100	0.036041	0.000000	0.295981
0_0270	100	0.076337	0.000000	1.000000
0_0271	100	0.053199	0.000000	0.103367
0_0272	100	0.094648	0.000000	1.000000
0_0273	100	0.082467	0.000000	0.258493
0_0274	100	0.050764	0.000000	0.133716
0_0275	12	0.000068	0.000000	0.000068
0_0276	100	0.037311	0.000000	0.242205
0_0277	100	0.027469	0.000000	0.072618
0_0279	100	0.142367	0.000000	0.256381
0_0280	4	0.208700	0.145921	0.312952
0_0281	100	0.048741	0.000000	0.136000
0_0282	6	0.000010	0.000000	0.134767
0_0283	31	0.159146	0.000000	1.000000
0_0284	86	0.083176	0.000000	1.000000
0_0285	6	0.139407	0.005155	0.237820
0_0286	3	0.040500	0.000000	0.040500
0_0287	100	0.075318	0.000000	0.243761
0_0288	2	0.065787	0.065787	0.065787
0_0289	100	0.070786	0.000000	0.273629
0_0290	100	0.020579	0.000000	0.243761
0_0291	67	0.180176	0.000000	1.000000
0_0292	10	0.027129	0.000000	0.169931
0_0293	59	0.186761	0.000000	1.000000
0_0294	100	0.005271	0.000000	0.149990
0_0295	100	0.065856	0.000000	1.000000
0_0296	17	0.000000	0.000000	0.156295
0_0298	56	0.198488	0.000000	1.000000
0_0299	100	0.028214	0.000000	0.056438
0_0300	100	0.023404	0.000000	0.098897
0_0301	59	0.056153	0.000000	0.091152
0_0302	5	0.062078	0.000000	0.093547
0_0303	12	0.000000	0.000000	0.187701
0_0304	100	0.154340	0.000000	1.000000
0_0305	100	0.071319	0.000000	1.000000
0_0306	100	0.035272	0.000000	1.000000
0_0307	100	0.204284	0.000000	1.000000
0_0308	29	0.181421	0.000000	0.372583
0_0309	85	0.210897	0.000000	1.000000
0_0310	100	0.115463	0.000000	0.247037
0_0311	12	0.000014	0.000000	0.248618
0_0312	14	0.216771	0.000000	0.339586
0_0313	100	0.073109	0.000000	0.149070
0_0315	51	0.106615	0.000000	1.000000
0_0316	18	0.143830	0.000000	1.000000
0_0317	77	0.216771	0.000000	1.000000
0_0318	91	0.140258	0.000000	1.000000
0_0319	91	0.086446	0.000000	0.170592
0_0320	44	0.064978	0.000000	1.000000
0_0321	55	0.058608	0.000000	1.000000
0_0322	100	0.013428	0.000000	0.130286
0_0323	100	0.061636	0.000000	1.000000
0_0324	19	0.175841	0.000000	1.000000
0_0325	82	0.032818	0.000000	1.000000
0_0326	100	0.000012	0.000000	0.225590
0_0327	3	0.000090	0.000000	0.000090
0_0328	2	0.000000	0.000000	0.000000
0_0329	4	0.027662	0.000000	0.031417
0_0330	2	0.000013	0.000013	0.000013
0_0331	100	0.000080	0.000000	0.144579
0_0332	100	0.000392	0.000000	0.085374
0_0333	45	0.046977	0.000000	0.372583
0_0334	100	0.045175	0.000000	1.000000
0_0335	82	0.222464	0.000000	1.000000
0_0336	48	0.021325	0.000000	1.000000
0_0337	49	0.000192	0.000000	0.100152
0_0338	100	0.045108	0.000000	1.000000
0_0339	100	0.017589	0.000000	0.174408
0_0340	100	0.012818	0.000000	0.121234
0_0341	100	0.001122	0.000000	0.128401
0_0342	100	0.011770	0.000000	0.258493
0_0343	99	0.159006	0.000000	1.000000
0_0344	100	0.073002	0.000000	0.113259
0_0345	10	0.079359	0.000000	1.000000
0_0346	100	0.008314	0.000000	1.000000
0_0347	100	0.033760	0.000000	0.108236
0_0348	88	0.000030	0.000000	0.047766
0_0349	85	0.000000	0.000000	1.000000
0_0350	6	0.231311	0.000143	1.000000
0_0352	56	0.248764	0.000000	1.000000
0_0353	19	0.066757	0.000000	1.000000
0_0354	55	0.016592	0.000000	0.245371
0_0355	100	0.004381	0.000000	1.000000
0_0356	33	0.219081	0.004477	1.000000
0_0358	3	0.201619	0.140086	0.258493
0_0359	100	0.034881	0.000000	0.134014
0_0360	63	0.095225	0.000000	1.000000
0_0361	10	0.000021	0.000000	0.000281
0_0362	100	0.000878	0.000000	0.233808
0_0363	54	0.008864	0.000000	0.233808
0_0364	51	0.041812	0.000000	1.000000
0_0365	53	0.026023	0.000000	0.260703
0_0366	8	0.037728	0.000000	1.000000
0_0367	100	0.247037	0.000000	1.000000
0_0368	100	0.056915	0.000000	1.000000
0_0369	26	0.055190	0.000000	1.000000
0_0371	2	0.000012	0.000012	0.000012
0_0372	100	0.046396	0.000000	0.080963
0_0373	100	0.064882	0.000000	1.000000
0_0375	26	0.058739	0.000000	0.101598
0_0376	21	0.141565	0.000000	1.000000
0_0377	100	0.000000	0.000000	0.144728
0_0378	5	0.000064	0.000000	0.000064
0_0379	27	0.001412	0.000000	0.224525
0_0380	78	0.194988	0.000000	1.000000
0_0381	70	0.147304	0.000000	1.000000
0_0382	38	0.143460	0.000000	1.000000
0_0383	21	0.000000	0.000000	0.000000
0_0384	32	0.097225	0.000000	1.000000
0_0385	16	0.091621	0.000000	1.000000
0_0386	2	0.000010	0.000010	0.000010
0_0387	56	0.180176	0.000000	1.000000
0_0388	49	0.106047	0.000000	0.224525
0_0389	100	0.003340	0.000000	0.199098
0_0390	15	0.000010	0.000000	0.189180
0_0391	100	0.022234	0.000000	1.000000
0_0392	72	0.235108	0.000000	1.000000
0_0393	4	0.047563	0.000000	0.095965
0_0394	100	0.000057	0.000000	0.169279
0_0395	9	0.051774	0.000000	1.000000
0_0396	3	0.000086	0.000048	0.000134
0_0397	45	0.001284	0.000000	0.249464
0_0398	100	0.048035	0.000000	0.207574
0_0399	40	0.231927	0.000000	1.000000
0_0400	36	0.000007	0.000000	0.258493
0_0401	94	0.000032	0.000000	0.016812
0_0402	4	0.062109	0.000154	0.099479
0_0403	91	0.087649	0.000000	1.000000
0_0404	12	0.041812	0.000000	0.254359
0_0405	4	0.135829	0.004058	1.000000
0_0406	16	0.008613	0.000024	1.000000
0_0407	58	0.122485	0.000000	1.000000
0_0409	79	0.037485	0.000000	1.000000
0_0410	87	0.230110	0.000000	1.000000
0_0411	32	0.032659	0.000000	0.300994
0_0412	72	0.053047	0.000000	1.000000
0_0413	79	0.021322	0.000000	1.000000
0_0414	79	0.000093	0.000000	1.000000
0_0415	13	0.223483	0.000011	1.000000
0_0417	29	0.022609	0.000000	0.295981
0_0418	53	0.175339	0.000000	1.000000
0_0419	13	0.186385	0.000000	1.000000
0_0421	18	0.248764	0.000000	1.000000
0_0422	13	0.136227	0.000000	0.199155
0_0423	66	0.175506	0.000000	1.000000
0_0424	52	0.205675	0.000000	1.000000
0_0425	9	0.138226	0.000000	0.239237
0_0426	13	0.216036	0.000000	1.000000
0_0427	63	0.022020	0.000000	1.000000
0_0428	58	0.008862	0.000000	1.000000
0_0429	7	0.237820	0.000000	0.264738
0_0430	7	0.242205	0.000000	1.000000
0_0431	63	0.000013	0.000000	0.000013
0_0432	24	0.177203	0.000000	1.000000
0_0433	59	0.000007	0.000000	0.007596
0_0434	15	0.212502	0.000000	0.353280
0_0435	18	0.113401	0.000000	1.000000
0_0437	58	0.113353	0.000000	1.000000
0_0438	13	0.014946	0.000000	0.163663
0_0439	58	0.000327	0.000000	0.010972
0_0440	58	0.013010	0.000000	0.054149
0_0441	14	0.202933	0.000000	1.000000
0_0442	57	0.000005	0.000000	0.003210
0_0443	24	0.228174	0.000000	1.000000
0_0445	6	0.196126	0.000000	0.198488
0_0446	4	0.231881	0.000891	0.339586
0_0447	3	0.033102	0.000000	0.033102
0_0449	14	0.100152	0.000000	0.328965
0_0450	50	0.000042	0.000000	1.000000
0_0451	3	0.000007	0.000000	0.000007
0_0452	50	0.005586	0.000000	0.045371
0_0453	27	0.132688	0.000000	1.000000
0_0454	3	0.113002	0.101765	0.131119
0_0455	29	0.212097	0.000000	1.000000
0_0456	6	0.192791	0.000000	1.000000
0_0457	47	0.003358	0.000000	1.000000
0_0458	44	0.057006	0.000000	1.000000
0_0459	9	0.031457	0.000000	0.168636
0_0460	14	0.178567	0.000010	1.000000
0_0461	2	0.000000	0.000000	0.000000
0_0463	6	0.235108	0.073926	1.000000
0_0464	2	0.000701	0.000701	0.000701
0_0465	21	0.068975	0.000000	0.276697
0_0466	3	0.016219	0.001140	0.016359
0_0467	43	0.000020	0.000000	0.017133
0_0468	2	0.239237	0.239237	0.239237
0_0470	34	0.237820	0.000000	0.353280
0_0471	27	0.000010	0.000000	1.000000
0_0472	6	0.231311	0.000000	0.265460
0_0473	40	0.015417	0.000000	0.102486
0_0474	2	0.000000	0.000000	0.000000
0_0475	38	0.000010	0.000000	0.000100
0_0476	5	0.025883	0.000029	0.276697
0_0477	35	0.232543	0.000000	1.000000
0_0478	4	0.233379	0.148114	1.000000
0_0479	16	0.212615	0.000000	1.000000
0_0480	36	0.000010	0.000000	0.004949
0_0481	36	0.000090	0.000000	0.000090
0_0482	12	0.000111	0.000000	0.109161
0_0483	26	0.174048	0.000000	1.000000
0_0484	12	0.211183	0.000000	1.000000
0_0485	31	0.006710	0.000000	0.034332
0_0486	3	0.235108	0.000011	0.235108
0_0487	2	0.000010	0.000010	0.000010
0_0488	12	0.144959	0.000000	1.000000
0_0489	7	0.064712	0.000015	0.121572
0_0490	33	0.189180	0.000000	1.000000
0_0491	5	0.238571	0.000000	0.405585
0_0493	5	0.225590	0.000011	0.248764
0_0494	4	0.239967	0.005349	1.000000
0_0495	4	0.205162	0.172288	0.227796
0_0496	32	0.001720	0.000000	0.033437
0_0497	2	0.000000	0.000000	0.000000
0_0498	5	0.213789	0.000018	1.000000
0_0499	4	0.000000	0.000000	0.000000
0_0500	31	0.187225	0.000000	0.372583
0_0501	20	0.002409	0.000000	0.291447
0_0502	5	0.207109	0.000000	1.000000
0_0503	10	0.019718	0.000000	0.111970
0_0506	21	0.086978	0.000000	0.353280
0_0507	17	0.074835	0.000000	1.000000
0_0508	28	0.000010	0.000000	0.000010
0_0509	11	0.061657	0.000007	1.000000
0_0510	28	0.020319	0.000000	1.000000
0_0511	28	0.107810	0.000000	1.000000
0_0512	18	0.237820	0.000000	1.000000
0_0513	5	0.000046	0.000000	0.000046
0_0514	2	0.219531	0.219531	0.219531
0_0515	4	0.073854	0.000000	0.147707
0_0516	22	0.198488	0.000000	1.000000
0_0517	24	0.137333	0.000000	1.000000
0_0518	12	0.243761	0.000002	1.000000
0_0519	4	0.216771	0.000026	0.250557
0_0521	11	0.198488	0.000000	1.000000
0_0522	25	0.000022	0.000000	0.071465
0_0524	2	0.204208	0.204208	0.204208
0_0525	2	0.005152	0.005152	0.005152
0_0526	24	0.000088	0.000000	1.000000
0_0527	22	0.004200	0.000000	0.104495
0_0528	7	0.243761	0.000000	0.279978
0_0529	4	0.142049	0.000000	0.203604
0_0530	3	0.012815	0.007156	0.021472
0_0531	4	0.071674	0.000000	0.087386
0_0533	2	0.058777	0.058777	0.058777
0_0534	6	0.159933	0.000000	0.202271
0_0535	3	0.059893	0.001603	0.062659
0_0536	2	0.092389	0.092389	0.092389
0_0537	2	0.018601	0.018601	0.018601
0_0538	6	0.100515	0.000000	0.126974
0_0540	20	0.016238	0.000000	0.059510
0_0541	21	0.000026	0.000000	0.016360
0_0542	2	0.000135	0.000135	0.000135
0_0543	5	0.000019	0.000000	0.042174
0_0544	8	0.067783	0.000000	1.000000
0_0545	5	0.073426	0.000015	1.000000
0_0547	11	0.232543	0.000000	1.000000
0_0548	8	0.000142	0.000000	0.000298
0_0550	11	0.032249	0.000000	0.095042
0_0551	3	0.196705	0.190371	0.207842
0_0552	5	0.082454	0.000041	0.137429
0_0553	3	0.177011	0.030291	0.193912
0_0554	2	0.223483	0.223483	0.223483
0_0557	11	0.007128	0.000000	1.000000
0_0558	4	0.215301	0.054296	0.236445
0_0559	8	0.175755	0.005465	1.000000
0_0560	17	0.163234	0.000000	0.405585
0_0561	10	0.209345	0.000000	1.000000
0_0562	13	0.180299	0.000000	1.000000
0_0563	2	0.056330	0.056330	0.056330
0_0564	3	0.217673	0.000012	0.217673
0_0565	15	0.002714	0.000000	0.002714
0_0566	2	0.090820	0.090820	0.090820
0_0568	8	0.000010	0.000000	0.000010
0_0569	2	0.126847	0.126847	0.126847
0_0570	7	0.000021	0.000000	0.203559
0_0571	13	0.132266	0.000000	1.000000
0_0572	13	0.022449	0.000000	0.130562
0_0574	10	0.049940	0.000000	1.000000
0_0575	2	0.240698	0.240698	0.240698
0_0576	7	0.004235	0.000000	0.137590
0_0577	3	0.233804	0.208996	0.320733
0_0579	6	0.000013	0.000000	0.000013
0_0580	12	0.221476	0.000005	1.000000
0_0581	10	0.214163	0.000000	0.276697
0_0582	12	0.193877	0.000000	0.240698
0_0584	2	0.045711	0.045711	0.045711
0_0585	2	0.000177	0.000177	0.000177
0_0587	2	0.013009	0.013009	0.013009
0_0588	6	0.183134	0.000000	1.000000
0_0590	3	0.236445	0.004372	0.237820
0_0591	3	0.004188	0.000011	0.004188
0_0592	2	0.000863	0.000863	0.000863
0_0593	6	0.030618	0.000000	1.000000
0_0594	6	0.015294	0.000011	0.033236
0_0595	11	0.000011	0.000000	0.004551
0_0596	4	0.152677	0.000000	1.000000
0_0597	2	0.000000	0.000000	0.000000
0_0598	10	0.154928	0.000000	0.200342
0_0599	5	0.000010	0.000000	0.016697
0_0600	8	0.000000	0.000000	0.000441
0_0601	9	0.102268	0.000000	1.000000
0_0603	9	0.020286	0.000000	0.087547
0_0604	3	0.228939	0.001508	0.230110
0_0605	2	0.000000	0.000000	0.000000
0_0606	10	0.000002	0.000000	0.172635
0_0607	4	0.122194	0.000000	0.244388
0_0609	9	0.202933	0.000000	0.291447
0_0610	7	0.016936	0.000000	0.031886
0_0611	4	0.104309	0.000868	1.000000
0_0612	2	0.218593	0.218593	0.218593
0_0613	3	0.186292	0.000439	0.186292
0_0614	5	0.007059	0.000334	0.014420
0_0615	10	0.216771	0.000000	0.276697
0_0616	9	0.000117	0.000000	1.000000
0_0618	9	0.093022	0.000000	0.142595
0_0619	9	0.007963	0.000000	0.221332
0_0620	9	0.146706	0.000000	0.191209
0_0621	3	0.235108	0.037963	0.258493
0_0622	5	0.182269	0.000031	0.217673
0_0624	2	0.090492	0.090492	0.090492
0_0625	2	0.088575	0.088575	0.088575
0_0626	8	0.001658	0.000000	0.042506
0_0627	2	0.000002	0.000002	0.000002
0_0628	2	0.000000	0.000000	0.000000
0_0629	2	0.024210	0.024210	0.024210
0_0630	8	0.000042	0.000000	0.000042
0_0631	8	0.000010	0.000000	0.169931
0_0633	8	0.000231	0.000057	0.067763
0_0634	7	0.001449	0.000038	0.213325
0_0635	8	0.237820	0.000000	1.000000
0_0636	3	0.194988	0.034248	0.227796
0_0639	7	0.070423	0.000000	0.242205
0_0643	4	0.162388	0.070194	0.260703
0_0644	2	0.000007	0.000007	0.000007
0_0645	2	0.000469	0.000469	0.000469
0_0646	3	0.172397	0.004049	0.177032
0_0647	3	0.236445	0.009178	1.000000
0_0648	4	0.051190	0.002397	0.096719
0_0649	7	0.059745	0.000000	0.185367
0_0650	7	0.000011	0.000000	0.000011
0_0651	3	0.000021	0.000000	0.000021
0_0653	7	0.240698	0.014808	1.000000
0_0654	7	0.000000	0.000000	0.002040
0_0655	2	0.243761	0.243761	0.243761
0_0656	6	0.109585	0.000000	0.303876
0_0657	3	0.239237	0.000000	0.239237
0_0658	7	0.073777	0.000000	1.000000
0_0659	2	0.052055	0.052055	0.052055
0_0660	4	0.242263	0.000000	0.283502
0_0665	6	0.000046	0.000000	0.000046
0_0666	3	0.092332	0.039583	1.000000
0_0670	6	0.180587	0.000000	0.180587
0_0671	6	0.000000	0.000000	0.000038
0_0672	6	0.000000	0.000000	0.000000
0_0674	5	0.244000	0.000000	1.000000
0_0675	6	0.000015	0.000000	0.000015
0_0676	6	0.000025	0.000000	0.180077
0_0677	6	0.240204	0.000000	0.296908
0_0678	3	0.000000	0.000000	0.000000
0_0679	3	0.000026	0.000000	0.000026
0_0680	4	0.200342	0.000000	1.000000
0_0684	3	0.212597	0.000034	0.212597
0_0686	2	0.038047	0.038047	0.038047
0_0687	2	0.247223	0.247223	0.247223
0_0689	5	0.024286	0.000000	1.000000
0_0690	2	0.000000	0.000000	0.000000
0_0691	5	0.000000	0.000000	0.000011
0_0692	2	0.000000	0.000000	0.000000
0_0693	4	0.000013	0.000000	0.000013
0_0694	5	0.009175	0.000064	0.014446
0_0695	5	0.000000	0.000000	0.000025
0_0696	2	0.000019	0.000019	0.000019
0_0698	4	0.030278	0.000000	0.060540
0_0701	5	0.002101	0.000000	0.002101
0_0702	3	0.232543	0.167688	0.405585
0_0703	2	0.205595	0.205595	0.205595
0_0704	2	0.214163	0.214163	0.214163
0_0705	5	0.047899	0.000000	0.082054
0_0706	5	0.217078	0.009585	1.000000
0_0707	2	0.000000	0.000000	0.000000
0_0708	2	0.000333	0.000333	0.000333
0_0709	5	0.191731	0.000010	0.203604
0_0710	3	0.000000	0.000000	0.000000
0_0712	4	0.059614	0.013131	0.075767
0_0713	4	0.057390	0.000000	0.114780
0_0715	3	0.223483	0.122717	0.240698
0_0716	2	0.019155	0.019155	0.019155
0_0717	2	0.000000	0.000000	0.000000
0_0718	3	0.228939	0.000000	0.228939
0_0719	4	0.140018	0.000000	0.182699
0_0720	5	0.000042	0.000000	0.000042
0_0721	2	0.225590	0.225590	0.225590
0_0722	4	0.011225	0.000093	0.023199
0_0723	5	0.011658	0.000000	0.011658
0_0725	4	0.110681	0.001220	0.220489
0_0726	4	0.091165	0.000000	0.182639
0_0727	3	0.233808	0.158887	0.353280
0_0728	2	0.088109	0.088109	0.088109
0_0731	4	0.239237	0.000000	0.239237
0_0732	4	0.003196	0.000000	0.006392
0_0733	4	0.000478	0.000000	0.000957
0_0734	4	0.000005	0.000000	0.000005
0_0735	3	0.004103	0.000011	0.004103
0_0736	4	0.000007	0.000000	0.000007
0_0737	4	0.002766	0.000000	0.005533
0_0738	4	0.001044	0.000000	0.002078
0_0739	4	0.000005	0.000000	0.000010
0_0740	2	0.000022	0.000022	0.000022
0_0742	2	0.000000	0.000000	0.000000
0_0743	3	0.240418	0.000000	0.240418
0_0747	4	0.141652	0.013041	0.253564
0_0748	4	0.056576	0.000979	0.112243
0_0749	3	0.112906	0.024643	0.143577
0_0750	4	0.005750	0.000000	0.011488
0_0751	4	0.000349	0.000000	0.000693
0_0752	4	0.000010	0.000000	0.000020
0_0753	2	0.133814	0.133814	0.133814
0_0754	4	0.001667	0.000000	0.003323
0_0755	2	0.000025	0.000025	0.000025
0_0756	3	0.128401	0.000000	0.128401
0_0758	4	0.038343	0.002348	1.000000
0_0760	2	0.004008	0.004008	0.004008
0_0761	3	0.215885	0.176630	1.000000
0_0763	2	0.000000	0.000000	0.000000
0_0764	4	0.000009	0.000000	0.000017
0_0766	4	0.207677	0.001954	1.000000
0_0767	4	0.019582	0.006320	0.032606
0_0768	3	0.000000	0.000000	0.000000
0_0770	4	0.000206	0.000000	0.000410
0_0772	3	0.106047	0.000000	0.106047
0_0773	4	0.165541	0.000060	0.268030
0_0774	3	0.000010	0.000000	0.000010
0_0775	4	0.150084	0.004772	0.177011
0_0776	2	0.000000	0.000000	0.000000
0_0780	4	0.181011	0.087345	1.000000
0_0781	2	0.095427	0.095427	0.095427
0_0783	4	0.001704	0.000000	0.003384
0_0784	3	0.064404	0.000000	0.064404
0_0785	3	0.000016	0.000000	0.000016
0_0786	3	0.000015	0.000000	0.000015
0_0787	3	0.000074	0.000000	0.000074
0_0788	3	0.003831	0.000000	0.003831
0_0789	3	0.000092	0.000000	0.000092
0_0790	3	0.000059	0.000000	0.000059
0_0791	3	0.010386	0.000000	0.010386
0_0792	3	0.000007	0.000000	0.000007
0_0793	3	0.073088	0.055636	0.114070
0_0794	2	0.235108	0.235108	0.235108
0_0795	2	0.006991	0.006991	0.006991
0_0796	3	0.020399	0.000698	0.021066
0_0797	3	0.007721	0.000000	0.007721
0_0798	3	0.000230	0.000022	0.000252
0_0799	3	0.000036	0.000000	0.000036
0_0801	3	0.177011	0.000000	0.177011
0_0803	3	0.211692	0.054317	0.212502
0_0804	3	0.237208	0.067820	0.243682
0_0805	3	0.143276	0.000040	0.143276
0_0807	3	0.000021	0.000000	0.000021
0_0808	3	0.000005	0.000000	0.000005
0_0809	3	0.000000	0.000000	0.000000
0_0810	3	0.039313	0.004477	0.046235
0_0811	3	0.000012	0.000000	0.000012
0_0812	2	0.245371	0.245371	0.245371
0_0814	2	0.038154	0.038154	0.038154
0_0815	2	0.027645	0.027645	0.027645
0_0816	2	0.000000	0.000000	0.000000
0_0817	2	0.248764	0.248764	0.248764
0_0818	3	0.000013	0.000000	0.000013
0_0819	2	0.163791	0.163791	0.163791
0_0820	3	0.247037	0.158119	1.000000
0_0824	3	0.247037	0.102413	0.283502
0_0825	2	0.081072	0.081072	0.081072
0_0827	3	0.000000	0.000000	0.000000
0_0829	2	0.174408	0.174408	0.174408
0_0830	2	0.000011	0.000011	0.000011
0_0831	2	0.240698	0.240698	0.240698
0_0836	3	0.015449	0.000000	0.015449
0_0837	3	0.000000	0.000000	0.000000
0_0838	2	0.000024	0.000024	0.000024
0_0839	2	0.000000	0.000000	0.000000
0_0840	3	0.011188	0.000000	0.011188
0_0842	3	0.027671	0.017599	0.051087
0_0844	2	0.002759	0.002759	0.002759
0_0845	2	0.000058	0.000058	0.000058
0_0847	2	0.002898	0.002898	0.002898
0_0849	2	0.000010	0.000010	0.000010
0_0850	2	0.000000	0.000000	0.000000
0_0851	2	0.000000	0.000000	0.000000
0_0852	2	0.000034	0.000034	0.000034
0_0853	2	0.235108	0.235108	0.235108
0_0855	2	0.024284	0.024284	0.024284
0_0856	2	0.000024	0.000024	0.000024
0_0858	2	0.004924	0.004924	0.004924
0_0860	2	0.000010	0.000010	0.000010
0_0861	2	0.000012	0.000012	0.000012
0_0862	2	0.000002	0.000002	0.000002
0_0863	2	0.000160	0.000160	0.000160
0_0864	2	0.000010	0.000010	0.000010
0_0865	2	0.000000	0.000000	0.000000
0_0866	2	0.000000	0.000000	0.000000
0_0867	2	0.000000	0.000000	0.000000
0_0868	2	0.000000	0.000000	0.000000
0_0869	2	0.175137	0.175137	0.175137
0_0870	2	0.018899	0.018899	0.018899
0_0871	2	0.000016	0.000016	0.000016
0_0872	2	0.000000	0.000000	0.000000
0_0874	2	0.000029	0.000029	0.000029
0_0875	2	0.000000	0.000000	0.000000
0_0876	2	0.027077	0.027077	0.027077
0_0877	2	0.000000	0.000000	0.000000
0_0878	2	0.145150	0.145150	0.145150
0_0879	2	0.000011	0.000011	0.000011
0_0880	2	0.004652	0.004652	0.004652
0_0881	2	0.000000	0.000000	0.000000
0_0882	2	0.000000	0.000000	0.000000
0_0883	2	0.215885	0.215885	0.215885
0_0884	2	0.000000	0.000000	0.000000
0_0885	2	0.000000	0.000000	0.000000
0_0886	2	0.000005	0.000005	0.000005
0_0888	2	0.198139	0.198139	0.198139
0_0889	2	0.000000	0.000000	0.000000
0_0890	2	0.000012	0.000012	0.000012
0_0893	2	0.000014	0.000014	0.000014
0_0894	2	0.000035	0.000035	0.000035
0_0895	2	0.014865	0.014865	0.014865
0_0896	2	0.046283	0.046283	0.046283
0_0897	2	0.000000	0.000000	0.000000
0_0898	2	0.000042	0.000042	0.000042
0_0900	2	0.175506	0.175506	0.175506
0_0902	2	0.146509	0.146509	0.146509
0_0904	2	0.007746	0.007746	0.007746
0_0905	2	0.000000	0.000000	0.000000
0_0906	2	0.001075	0.001075	0.001075
0_0907	2	0.004270	0.004270	0.004270
0_0910	2	0.002121	0.002121	0.002121
0_0911	2	0.000021	0.000021	0.000021
0_0913	2	0.000000	0.000000	0.000000
0_0915	2	0.200976	0.200976	0.200976
0_0916	2	0.000011	0.000011	0.000011
0_0917	2	0.000000	0.000000	0.000000
0_0918	2	0.000000	0.000000	0.000000
0_0919	2	0.000000	0.000000	0.000000
0_0921	2	0.000105	0.000105	0.000105
0_0922	2	0.008602	0.008602	0.008602
0_0923	2	0.000000	0.000000	0.000000
0_0928	2	0.134163	0.134163	0.134163
0_0930	2	0.000361	0.000361	0.000361
0_0931	2	0.000761	0.000761	0.000761
0_0932	2	0.000005	0.000005	0.000005
0_0933	2	0.000791	0.000791	0.000791
0_0934	2	0.000051	0.000051	0.000051
0_0935	2	0.000015	0.000015	0.000015
0_0936	2	0.000000	0.000000	0.000000
0_0937	2	0.003816	0.003816	0.003816
0_0938	2	0.015134	0.015134	0.015134
0_0939	2	0.000067	0.000067	0.000067
0_0945	2	0.000062	0.000062	0.000062
0_0946	2	0.000000	0.000000	0.000000
0_1156	51	0.000012	0.000000	0.254359
0_1157	32	0.040780	0.000000	0.104571
0_1158	12	0.000002	0.000000	0.007552
0_1159	2	0.000000	0.000000	0.000000
0_1163	2	0.064320	0.064320	0.064320
0_1168	4	0.143095	0.061071	0.184014
0_1169	4	0.042375	0.000223	0.081309
0_1170	4	0.084377	0.000002	0.084377
0_1171	2	0.000987	0.000987	0.000987
0_1176	7	0.139916	0.000011	0.168318
0_1177	5	0.000000	0.000000	0.000000
0_1178	4	0.004253	0.000067	0.008205
0_1179	2	0.023590	0.023590	0.023590
0_1180	3	0.009445	0.007020	0.009458
0_1181	3	0.000040	0.000000	0.000040
0_1182	2	0.081135	0.081135	0.081135
0_1183	2	0.000011	0.000011	0.000011
0_1184	2	0.000000	0.000000	0.000000
0_1198	25	0.000017	0.000000	0.000191
0_1199	12	0.052996	0.000000	1.000000
0_1200	5	0.113166	0.000007	0.170926
0_1201	3	0.139576	0.000000	0.139576
0_1202	4	0.047537	0.000041	0.047585
0_1203	3	0.108822	0.039552	0.124612
0_1204	2	0.024300	0.024300	0.024300
0_1205	2	0.000000	0.000000	0.000000
0_1206	2	0.008608	0.008608	0.008608
0_1213	9	0.131995	0.000000	1.000000
0_1214	3	0.147651	0.000000	0.147651
0_1215	3	0.007346	0.000000	0.007346
0_1222	11	0.130840	0.000000	0.210114
0_1223	3	0.000013	0.000000	0.000013
0_1228	7	0.097165	0.000484	1.000000
0_1230	6	0.000000	0.000000	0.134767
0_1231	2	0.002636	0.002636	0.002636
0_1234	9	0.087585	0.000000	0.194429
0_1235	2	0.052474	0.052474	0.052474
0_1236	2	0.079277	0.079277	0.079277
0_1237	2	0.058681	0.058681	0.058681
0_1238	2	0.000011	0.000011	0.000011
0_1239	2	0.000013	0.000013	0.000013
0_1242	7	0.086694	0.000000	1.000000
0_1243	2	0.000011	0.000011	0.000011
0_1244	2	0.001260	0.001260	0.001260
0_1247	16	0.000212	0.000000	0.001968
0_1248	6	0.001168	0.000000	0.001168
0_1249	2	0.000047	0.000047	0.000047
0_1250	2	0.000000	0.000000	0.000000
0_1256	9	0.118700	0.000000	1.000000
0_1257	2	0.101836	0.101836	0.101836
0_1262	3	0.030149	0.000000	0.030149
0_1263	3	0.000000	0.000000	0.000000
0_1264	2	0.000011	0.000011	0.000011
0_1271	20	0.098335	0.000000	1.000000
0_1274	5	0.117167	0.000010	0.220489
0_1275	4	0.000002	0.000000	0.000002
0_1279	3	0.011158	0.008129	0.014881
0_1280	2	0.000000	0.000000	0.000000
0_1282	2	0.078703	0.078703	0.078703
0_1283	2	0.030800	0.030800	0.030800
0_1284	2	0.000000	0.000000	0.000000
0_1286	5	0.000017	0.000000	0.126244
0_1287	4	0.057422	0.000023	0.129334
0_1290	2	0.000000	0.000000	0.000000
0_1294	2	0.000011	0.000011	0.000011
0_1295	2	0.000000	0.000000	0.000000
0_1296	2	0.000018	0.000018	0.000018
