clade_id	n_members	median_mash	min_mash	max_mash
0_0000	100	0.149146	0.000000	0.283502
0_0001	100	0.019834	0.000000	0.254359
0_0002	100	0.102704	0.000000	1.000000
0_0003	100	0.175137	0.000000	0.339586
0_0004	100	0.049682	0.000000	1.000000
0_0005	100	0.062926	0.000000	1.000000
0_0006	100	0.171602	0.000000	0.233808
0_0007	100	0.041690	0.000000	0.235108
0_0008	100	0.044001	0.000000	0.231311
0_0009	100	0.135150	0.000000	1.000000
0_0010	100	0.204974	0.000000	1.000000
0_0011	100	0.000026	0.000000	0.256381
0_0012	100	0.035354	0.000000	1.000000
0_0013	100	0.052117	0.000000	1.000000
0_0014	100	0.147104	0.000000	1.000000
0_0015	100	0.000038	0.000000	0.065251
0_0016	100	0.027311	0.000000	0.106604
0_0017	100	0.027973	0.000000	0.046835
0_0018	100	0.034484	0.000000	0.057764
0_0019	100	0.000005	0.000000	0.049664
0_0020	100	0.067519	0.000000	1.000000
0_0021	60	0.142728	0.000000	1.000000
0_0022	100	0.095656	0.000000	0.142910
0_0023	100	0.000084	0.000000	0.151066
0_0024	100	0.006639	0.000000	1.000000
0_0025	100	0.180176	0.000000	1.000000
0_0026	100	0.240698	0.000000	1.000000
0_0027	100	0.074652	0.000000	1.000000
0_0028	85	0.050033	0.000000	1.000000
0_0029	100	0.000520	0.000000	0.022198
0_0030	100	0.000520	0.000000	0.012293
0_0031	100	0.076644	0.000000	0.205675
0_0032	5	0.051550	0.000000	0.052117
0_0033	100	0.124311	0.000000	1.000000
0_0034	100	0.197292	0.000000	1.000000
0_0035	8	0.008408	0.000000	0.306598
0_0036	49	0.174933	0.000000	1.000000
0_0037	5	0.221466	0.000000	1.000000
0_0038	6	0.158956	0.000000	1.000000
0_0039	64	0.020406	0.000000	0.260703
0_0040	66	0.044310	0.000000	1.000000
0_0041	70	0.202271	0.000000	1.000000
0_0042	100	0.034069	0.000000	1.000000
0_0043	36	0.200976	0.000000	1.000000
0_0044	100	0.032957	0.000000	0.328965
0_0045	100	0.000002	0.000000	0.067096
0_0046	78	0.049263	0.000000	0.222464
0_0047	100	0.076490	0.000000	1.000000
0_0048	85	0.036965	0.000000	1.000000
0_0049	100	0.016819	0.000000	0.184014
0_0050	30	0.107822	0.000000	0.207842
0_0051	1			
0_0052	100	0.036226	0.000000	0.172635
0_0053	100	0.036721	0.000000	1.000000
0_0054	9	0.000733	0.000000	0.206387
0_0055	100	0.100706	0.000000	1.000000
0_0056	100	0.001447	0.000000	0.085374
0_0057	41	0.034210	0.000000	1.000000
0_0058	7	0.215016	0.031467	0.273629
0_0059	100	0.003378	0.000000	1.000000
0_0060	100	0.043640	0.000000	0.240698
0_0061	100	0.081380	0.000000	0.149544
0_0062	38	0.024487	0.000000	0.295981
0_0063	2	0.198488	0.198488	0.198488
0_0064	55	0.096910	0.000000	0.282844
0_0065	34	0.106047	0.000000	1.000000
0_0066	17	0.067740	0.000000	1.000000
0_0067	30	0.120000	0.000000	1.000000
0_0068	76	0.119047	0.000000	1.000000
0_0069	6	0.132255	0.000000	0.372583
0_0070	66	0.000016	0.000000	0.279978
0_0071	56	0.036330	0.000000	0.268030
0_0072	4	0.018531	0.000053	0.037380
0_0073	8	0.037728	0.000000	1.000000
0_0074	100	0.202271	0.000000	1.000000
0_0075	3	0.026260	0.008574	0.036250
0_0076	100	0.044427	0.000000	0.256381
0_0077	68	0.227796	0.000000	1.000000
0_0078	82	0.185827	0.000000	1.000000
0_0079	11	0.243761	0.000000	0.291447
0_0080	29	0.226680	0.000000	1.000000
0_0081	43	0.072100	0.000000	0.295981
0_0082	47	0.174771	0.000000	0.353280
0_0083	3	0.168002	0.069869	0.175137
0_0084	27	0.056153	0.000000	0.087955
0_0085	45	0.134767	0.000000	1.000000
0_0086	12	0.142009	0.000000	0.199098
0_0087	98	0.039086	0.000000	1.000000
0_0088	95	0.231311	0.000000	1.000000
0_0089	49	0.224004	0.000000	1.000000
0_0090	4	0.083920	0.000000	0.167067
0_0091	16	0.113527	0.000000	0.328965
0_0092	1			
0_0093	3	0.094258	0.048636	0.132270
0_0094	29	0.010433	0.000000	1.000000
0_0095	32	0.239237	0.000000	1.000000
0_0096	68	0.032893	0.000000	1.000000
0_0097	37	0.217817	0.000000	1.000000
0_0098	15	0.225590	0.000000	1.000000
0_0099	1			
0_0100	42	0.199716	0.000000	1.000000
0_0101	14	0.025779	0.000000	0.295981
0_0102	12	0.061723	0.000000	0.236445
0_0103	57	0.224525	0.000000	1.000000
0_0104	22	0.043774	0.000000	0.164662
0_0105	53	0.058610	0.000000	0.300994
0_0106	5	0.245371	0.000000	1.000000
0_0107	42	0.000046	0.000000	1.000000
0_0108	2	0.000028	0.000028	0.000028
0_0109	52	0.000000	0.000000	1.000000
0_0110	19	0.072719	0.000000	0.133733
0_0111	3	0.199716	0.002700	0.201619
0_0112	33	0.151285	0.000000	1.000000
0_0113	36	0.227796	0.000000	1.000000
0_0114	49	0.006373	0.000000	0.155166
0_0115	49	0.000469	0.000000	0.007855
0_0116	29	0.000007	0.000000	1.000000
0_0117	2	0.000012	0.000012	0.000012
0_0118	5	0.000021	0.000000	0.000048
0_0119	30	0.203604	0.000000	1.000000
0_0120	38	0.046396	0.000000	1.000000
0_0121	11	0.195912	0.000000	1.000000
0_0122	40	0.001892	0.000000	1.000000
0_0123	39	0.012818	0.000000	0.029723
0_0124	14	0.021766	0.000000	1.000000
0_0125	8	0.184110	0.000000	1.000000
0_0126	27	0.188686	0.000000	0.405585
0_0127	28	0.108319	0.000000	0.133864
0_0128	1			
0_0129	31	0.000103	0.000000	0.191731
0_0130	13	0.142161	0.000000	1.000000
0_0131	8	0.235404	0.000119	1.000000
0_0132	17	0.160733	0.000000	1.000000
0_0133	35	0.087649	0.000000	0.222464
0_0134	35	0.161547	0.000000	1.000000
0_0135	2	0.243761	0.243761	0.243761
0_0136	8	0.012017	0.000000	0.198488
0_0137	19	0.242205	0.000000	1.000000
0_0138	26	0.236445	0.000000	1.000000
0_0139	12	0.212200	0.000000	1.000000
0_0140	25	0.054508	0.000000	1.000000
0_0141	7	0.051666	0.000000	0.205675
0_0142	8	0.214163	0.000000	1.000000
0_0143	3	0.208588	0.000000	0.208588
0_0144	1			
0_0145	28	0.004512	0.000000	0.138079
0_0146	25	0.076353	0.000000	0.100359
0_0147	1			
0_0148	27	0.016266	0.000000	0.040202
0_0149	1			
0_0150	1			
0_0151	7	0.233808	0.000002	1.000000
0_0152	24	0.237820	0.000000	1.000000
0_0153	10	0.218593	0.000000	1.000000
0_0154	4	0.211406	0.008608	1.000000
0_0155	3	0.213325	0.168956	1.000000
0_0156	24	0.047157	0.000000	0.142910
0_0157	24	0.079484	0.000000	0.113259
0_0158	4	0.201995	0.085422	0.240698
0_0159	1			
0_0160	2	0.115858	0.115858	0.115858
0_0161	21	0.031417	0.000000	1.000000
0_0162	1			
0_0163	20	0.000010	0.000000	0.000010
0_0164	3	0.223483	0.162376	1.000000
0_0165	1			
0_0166	20	0.173061	0.000000	1.000000
0_0167	6	0.245371	0.059403	1.000000
0_0168	20	0.186655	0.000000	0.372583
0_0169	12	0.009699	0.000000	1.000000
0_0170	15	0.235108	0.000000	1.000000
0_0171	11	0.000192	0.000000	0.006734
0_0172	6	0.208588	0.000000	0.233808
0_0173	4	0.106261	0.000000	0.212502
0_0174	5	0.102625	0.000000	0.102625
0_0175	18	0.000112	0.000000	0.030111
0_0176	17	0.230110	0.000000	1.000000
0_0177	2	0.000029	0.000029	0.000029
0_0178	7	0.245371	0.002969	0.339586
0_0179	4	0.141337	0.057648	0.169604
0_0180	3	0.162937	0.055147	0.164370
0_0181	17	0.000010	0.000000	0.000010
0_0182	2	0.000778	0.000778	0.000778
0_0183	8	0.235108	0.000000	1.000000
0_0184	13	0.093050	0.000000	0.270747
0_0185	16	0.016238	0.000000	0.027284
0_0186	11	0.086978	0.000000	0.086978
0_0187	4	0.109161	0.000000	0.109161
0_0188	7	0.187713	0.001058	1.000000
0_0189	8	0.134996	0.000002	0.230110
0_0190	15	0.000022	0.000000	0.071465
0_0191	4	0.130642	0.000000	0.242205
0_0192	15	0.000013	0.000000	0.000013
0_0193	6	0.101197	0.032691	1.000000
0_0194	8	0.193699	0.078948	1.000000
0_0195	14	0.215016	0.000000	1.000000
0_0196	4	0.053627	0.000000	0.107250
0_0197	10	0.233808	0.000000	1.000000
0_0198	3	0.191731	0.054024	1.000000
0_0199	2	0.220489	0.220489	0.220489
0_0200	1			
0_0201	4	0.119796	0.000422	0.237820
0_0202	7	0.009021	0.000022	0.121639
0_0203	14	0.000090	0.000000	0.000090
0_0204	2	0.000000	0.000000	0.000000
0_0205	1			
0_0206	12	0.235108	0.000000	1.000000
0_0207	2	0.000691	0.000691	0.000691
0_0208	10	0.071827	0.000683	1.000000
0_0209	1			
0_0210	4	0.137277	0.000016	0.243761
0_0211	2	0.000000	0.000000	0.000000
0_0212	1			
0_0213	7	0.233694	0.030800	1.000000
0_0214	3	0.209340	0.030291	0.239237
0_0215	7	0.228939	0.000000	0.248764
0_0216	11	0.172984	0.000000	0.197292
0_0217	11	0.058538	0.000000	0.064181
0_0218	8	0.178852	0.001431	1.000000
0_0219	11	0.000011	0.000000	0.004551
0_0220	1			
0_0221	11	0.001653	0.000000	1.000000
0_0222	8	0.000186	0.000000	0.000372
0_0223	10	0.000000	0.000000	0.000032
0_0224	5	0.231311	0.000143	0.232543
0_0225	10	0.164370	0.000000	0.222464
0_0226	7	0.016936	0.000000	0.031886
0_0227	5	0.000000	0.000000	0.221406
0_0228	1			
0_0229	3	0.212502	0.192791	0.339586
0_0230	6	0.247037	0.000000	0.270747
0_0231	2	0.155645	0.155645	0.155645
0_0232	4	0.195861	0.005465	0.215885
0_0233	2	0.208996	0.208996	0.208996
0_0234	9	0.239237	0.000000	1.000000
0_0235	8	0.000231	0.000057	0.067763
0_0236	8	0.215885	0.000007	0.276697
0_0237	2	0.240698	0.240698	0.240698
0_0238	8	0.008234	0.000000	0.130562
0_0239	8	0.000057	0.000000	0.003210
0_0240	3	0.016691	0.000010	0.016697
0_0241	8	0.003425	0.000000	0.004832
0_0242	2	0.000000	0.000000	0.000000
0_0243	1			
0_0244	1			
0_0245	1			
0_0246	7	0.025706	0.000000	0.041409
0_0247	7	0.000007	0.000000	0.196705
0_0248	7	0.077110	0.000530	1.000000
0_0249	2	0.227796	0.227796	0.227796
0_0250	2	0.219531	0.219531	0.219531
0_0251	5	0.000076	0.000000	0.073496
0_0252	3	0.247037	0.169279	0.254359
0_0253	7	0.000000	0.000000	0.002040
0_0254	4	0.000002	0.000000	0.000005
0_0255	5	0.191209	0.000000	0.295981
0_0256	7	0.123892	0.000000	1.000000
0_0257	5	0.000114	0.000000	0.000114
0_0258	3	0.160733	0.000007	0.160733
0_0259	1			
0_0260	1			
0_0261	3	0.146973	0.000036	0.146973
0_0262	5	0.000019	0.000000	0.042174
0_0263	3	0.154457	0.001222	1.000000
0_0264	6	0.005265	0.000000	1.000000
0_0265	1			
0_0266	3	0.000000	0.000000	0.000000
0_0267	4	0.187692	0.000041	0.405585
0_0268	6	0.225590	0.000000	0.291447
0_0269	3	0.000026	0.000000	0.000026
0_0270	2	0.060640	0.060640	0.060640
0_0271	1			
0_0272	2	0.000132	0.000132	0.000132
0_0273	4	0.001200	0.000000	0.002400
0_0274	2	0.240698	0.240698	0.240698
0_0275	4	0.176430	0.000031	0.217673
0_0276	1			
0_0277	6	0.000005	0.000000	0.025631
0_0278	1			
0_0279	4	0.104309	0.000868	1.000000
0_0280	4	0.000000	0.000000	0.000000
0_0281	1			
0_0282	2	0.200976	0.200976	0.200976
0_0283	1			
0_0284	1			
0_0285	5	0.044507	0.000000	1.000000
0_0286	5	0.123588	0.007246	1.000000
0_0287	3	0.232543	0.167688	0.405585
0_0288	5	0.213325	0.000084	0.279978
0_0289	5	0.000000	0.000000	0.000038
0_0290	5	0.000010	0.000000	0.000163
0_0291	1			
0_0292	3	0.212502	0.121234	0.218593
0_0293	1			
0_0294	2	0.221466	0.221466	0.221466
0_0295	4	0.174773	0.085858	0.250557
0_0296	2	0.000333	0.000333	0.000333
0_0297	3	0.085809	0.051376	1.000000
0_0298	2	0.019062	0.019062	0.019062
0_0299	1			
0_0300	5	0.007963	0.000000	0.221332
0_0301	2	0.052055	0.052055	0.052055
0_0302	3	0.208588	0.200976	0.276697
0_0303	2	0.242205	0.242205	0.242205
0_0304	5	0.000042	0.000000	0.000042
0_0305	2	0.205675	0.205675	0.205675
0_0306	1			
0_0307	3	0.040051	0.000000	0.040051
0_0308	3	0.000010	0.000000	0.000010
0_0309	2	0.243761	0.243761	0.243761
0_0310	1			
0_0311	2	0.016873	0.016873	0.016873
0_0312	3	0.248966	0.000000	0.248966
0_0313	1			
0_0314	4	0.014464	0.000000	0.017133
0_0315	3	0.232645	0.046828	0.260703
0_0316	4	0.191731	0.000010	0.203604
0_0317	2	0.243761	0.243761	0.243761
0_0318	1			
0_0319	2	0.218593	0.218593	0.218593
0_0320	2	0.007803	0.007803	0.007803
0_0321	3	0.227522	0.105242	0.238608
0_0322	1			
0_0323	3	0.072639	0.000000	0.072639
0_0324	4	0.000011	0.000000	0.000011
0_0325	1			
0_0326	1			
0_0327	4	0.209345	0.001951	1.000000
0_0328	1			
0_0329	1			
0_0330	2	0.228939	0.228939	0.228939
0_0331	3	0.167927	0.112109	0.182699
0_0332	3	0.175137	0.022553	1.000000
0_0333	1			
0_0334	4	0.000206	0.000000	0.000410
0_0335	1			
0_0336	4	0.165541	0.000060	0.268030
0_0337	3	0.000016	0.000000	0.000016
0_0338	3	0.000015	0.000000	0.000015
0_0339	1			
0_0340	2	0.156664	0.156664	0.156664
0_0341	3	0.222312	0.096735	0.242765
0_0342	3	0.245371	0.000000	0.245371
0_0343	3	0.136314	0.000000	0.136314
0_0344	3	0.011488	0.000012	0.011488
0_0345	3	0.002078	0.000010	0.002078
0_0346	3	0.000000	0.000000	0.000000
0_0347	3	0.000007	0.000000	0.000007
0_0348	3	0.000691	0.000000	0.000691
0_0349	3	0.000020	0.000000	0.000020
0_0350	3	0.005523	0.000010	0.005533
0_0351	1			
0_0352	3	0.003323	0.000000	0.003323
0_0353	2	0.004372	0.004372	0.004372
0_0354	3	0.244388	0.000000	0.244388
0_0355	3	0.000012	0.000000	0.000012
0_0356	1			
0_0357	3	0.064411	0.000016	0.064411
0_0358	3	0.000005	0.000000	0.000005
0_0359	3	0.000957	0.000000	0.000957
0_0360	3	0.063905	0.002348	0.067066
0_0361	2	0.004103	0.004103	0.004103
0_0362	3	0.000011	0.000000	0.000011
0_0363	1			
0_0364	3	0.049792	0.037175	0.059452
0_0365	2	0.000000	0.000000	0.000000
0_0366	2	0.027645	0.027645	0.027645
0_0367	3	0.074106	0.058208	0.075767
0_0368	2	0.248764	0.248764	0.248764
0_0369	3	0.186761	0.174771	0.191209
0_0370	2	0.000011	0.000011	0.000011
0_0371	2	0.163791	0.163791	0.163791
0_0372	3	0.175878	0.000045	0.175878
0_0373	3	0.057625	0.014808	1.000000
0_0374	1			
0_0375	3	0.070423	0.000000	0.070423
0_0376	1			
0_0377	3	0.000273	0.000000	0.000273
0_0378	1			
0_0379	1			
0_0380	1			
0_0381	1			
0_0382	2	0.081072	0.081072	0.081072
0_0383	1			
0_0384	1			
0_0385	3	0.000000	0.000000	0.000000
0_0386	1			
0_0387	2	0.174408	0.174408	0.174408
0_0388	1			
0_0389	2	0.106047	0.106047	0.106047
0_0390	1			
0_0391	1			
0_0392	2	0.225590	0.225590	0.225590
0_0393	1			
0_0394	1			
0_0395	1			
0_0396	2	0.000000	0.000000	0.000000
0_0397	2	0.000000	0.000000	0.000000
0_0398	2	0.007596	0.007596	0.007596
0_0399	2	0.000002	0.000002	0.000002
0_0400	2	0.000160	0.000160	0.000160
0_0401	2	0.000010	0.000010	0.000010
0_0402	2	0.000000	0.000000	0.000000
0_0403	2	0.000084	0.000084	0.000084
0_0404	2	0.000000	0.000000	0.000000
0_0405	2	0.000000	0.000000	0.000000
0_0406	2	0.000671	0.000671	0.000671
0_0407	2	0.150417	0.150417	0.150417
0_0408	2	0.000000	0.000000	0.000000
0_0409	2	0.046235	0.046235	0.046235
0_0410	2	0.163791	0.163791	0.163791
0_0411	2	0.000000	0.000000	0.000000
0_0412	2	0.018899	0.018899	0.018899
0_0413	2	0.000016	0.000016	0.000016
0_0414	2	0.000000	0.000000	0.000000
0_0415	2	0.065798	0.065798	0.065798
0_0416	1			
0_0417	2	0.154928	0.154928	0.154928
0_0418	2	0.000029	0.000029	0.000029
0_0419	2	0.000000	0.000000	0.000000
0_0420	1			
0_0421	2	0.125222	0.125222	0.125222
0_0422	2	0.000000	0.000000	0.000000
0_0423	1			
0_0424	2	0.173336	0.173336	0.173336
0_0425	2	0.000007	0.000007	0.000007
0_0426	1			
0_0427	2	0.145150	0.145150	0.145150
0_0428	2	0.000059	0.000059	0.000059
0_0429	1			
0_0430	2	0.000000	0.000000	0.000000
0_0431	2	0.000011	0.000011	0.000011
0_0432	1			
0_0433	2	0.004652	0.004652	0.004652
0_0434	2	0.215885	0.215885	0.215885
0_0435	1			
0_0436	1			
0_0437	2	0.086249	0.086249	0.086249
0_0438	2	0.000000	0.000000	0.000000
0_0439	2	0.062659	0.062659	0.062659
0_0440	2	0.000005	0.000005	0.000005
0_0441	1			
0_0442	2	0.000013	0.000013	0.000013
0_0443	1			
0_0444	1			
0_0445	1			
0_0446	1			
0_0447	2	0.000000	0.000000	0.000000
0_0448	2	0.000014	0.000014	0.000014
0_0449	2	0.000035	0.000035	0.000035
0_0450	2	0.111789	0.111789	0.111789
0_0451	1			
0_0452	2	0.247037	0.247037	0.247037
0_0453	2	0.114974	0.114974	0.114974
0_0454	2	0.000000	0.000000	0.000000
0_0455	1			
0_0456	1			
0_0457	2	0.032459	0.032459	0.032459
0_0458	2	0.175506	0.175506	0.175506
0_0459	1			
0_0460	2	0.247037	0.247037	0.247037
0_0461	1			
0_0462	2	0.241551	0.241551	0.241551
0_0463	1			
0_0464	1			
0_0465	2	0.243682	0.243682	0.243682
0_0466	2	0.185367	0.185367	0.185367
0_0467	2	0.000000	0.000000	0.000000
0_0468	2	0.000000	0.000000	0.000000
0_0469	2	0.000035	0.000035	0.000035
0_0470	2	0.008133	0.008133	0.008133
0_0471	1			
0_0472	1			
0_0473	1			
0_0474	1			
0_0475	1			
0_0476	2	0.083726	0.083726	0.083726
0_0477	1			
0_0478	1			
0_0479	1			
0_0480	1			
0_0481	1			
0_0482	1			
0_0483	1			
0_0484	1			
0_0485	1			
0_0486	1			
0_0487	1			
0_0488	1			
0_0489	1			
0_0490	1			
0_0491	1			
0_0492	1			
0_0493	1			
0_0494	1			
0_0495	1			
0_0496	1			
0_0497	1			
0_0498	1			
0_0499	1			
0_0500	1			
0_0501	1			
0_0502	1			
0_0503	1			
0_0504	1			
0_0505	1			
0_0506	1			
0_0507	1			
0_0508	1			
0_0509	1			
0_0510	1			
0_0511	1			
0_0512	1			
0_0513	1			
0_0514	1			
0_0515	1			
0_0516	1			
0_0517	1			
0_0518	1			
0_0519	1			
0_0520	1			
0_0521	1			
0_0522	1			
0_0523	1			
0_0524	1			
0_0525	1			
0_0526	1			
0_0527	1			
0_0528	1			
0_0529	1			
0_0530	1			
0_0531	1			
0_0532	1			
0_0533	1			
0_0534	1			
0_0535	1			
0_0536	1			
0_0537	1			
0_0538	1			
0_0539	1			
0_0540	1			
0_0541	1			
0_0542	1			
0_0543	1			
0_0544	1			
0_0545	1			
0_0546	1			
0_0547	1			
0_0548	1			
0_0549	1			
0_0550	1			
0_0551	1			
0_0552	1			
0_0553	1			
0_0554	1			
0_0555	1			
0_0556	1			
0_0557	1			
0_0558	1			
0_0559	1			
0_0560	1			
0_0561	1			
0_0562	1			
0_0563	1			
0_0564	1			
0_0565	1			
0_0566	1			
0_0567	1			
0_0568	1			
0_0569	1			
0_0570	1			
0_0571	1			
0_0572	1			
0_0573	1			
0_0574	1			
0_0575	1			
0_0576	1			
0_0577	1			
0_0578	1			
0_0579	1			
0_0580	1			
0_0581	1			
0_0582	1			
0_0583	1			
0_0584	1			
0_0585	1			
0_0586	1			
0_0587	1			
0_0588	1			
0_0589	1			
0_0590	1			
0_0591	1			
0_0592	1			
0_0593	1			
0_0594	1			
0_0595	1			
0_0596	1			
0_0597	1			
0_0598	1			
0_0599	1			
0_0600	1			
0_0601	1			
0_0602	1			
0_0603	1			
0_0604	1			
0_0605	1			
0_0606	1			
0_0607	1			
0_0608	1			
0_0609	1			
0_0610	1			
0_0611	1			
0_0612	1			
0_0613	1			
0_0614	1			
0_0615	1			
0_0616	1			
0_0617	1			
0_0618	1			
0_0619	1			
0_0620	1			
0_0621	1			
0_0622	1			
0_0623	1			
0_0624	1			
0_0625	1			
0_0626	1			
0_0627	1			
0_0628	1			
0_0629	1			
0_0630	1			
0_0631	1			
0_0632	1			
0_0633	1			
0_0634	1			
0_0635	1			
0_0636	1			
0_0637	1			
0_0638	1			
0_0639	1			
0_0640	1			
0_0641	1			
0_0642	1			
0_0643	1			
0_0644	1			
0_0645	1			
0_0646	1			
0_0647	1			
0_0648	1			
0_0649	1			
0_0650	1			
0_0651	1			
0_0652	1			
0_0653	1			
0_0654	1			
0_0655	1			
0_0656	1			
0_0657	1			
0_0658	1			
0_0659	1			
0_0660	1			
0_0661	1			
0_0662	1			
0_0663	1			
0_0664	1			
0_0665	1			
0_0666	1			
0_0667	1			
0_0668	1			
0_0669	1			
0_0670	1			
0_0671	1			
0_0672	1			
0_0673	1			
0_0674	1			
0_0675	1			
0_0676	1			
0_0677	1			
0_0678	1			
0_0679	1			
0_0680	1			
0_0681	1			
0_0682	1			
0_0683	1			
0_0684	1			
0_0685	1			
0_0686	1			
0_0687	45	0.098138	0.000000	1.000000
0_0688	16	0.128053	0.000000	0.252420
0_0689	9	0.050387	0.000000	0.082320
0_0690	4	0.000017	0.000000	0.000033
0_0691	3	0.000342	0.000002	0.000344
0_0692	2	0.071724	0.071724	0.071724
0_0693	2	0.094438	0.094438	0.094438
0_0694	3	0.137915	0.079775	0.171944
0_0695	2	0.021225	0.021225	0.021225
0_0696	1			
0_0697	9	0.120146	0.000000	0.214163
0_0698	3	0.013213	0.000000	0.013213
0_0699	3	0.000042	0.000000	0.000042
0_0700	1			
0_0701	1			
0_0702	1			
0_0703	26	0.142547	0.000000	1.000000
0_0704	2	0.117065	0.117065	0.117065
0_0705	9	0.096785	0.000384	0.128533
0_0706	4	0.126790	0.083039	1.000000
0_0707	1			
0_0708	2	0.129604	0.129604	0.129604
0_0709	5	0.055380	0.024430	1.000000
0_0710	4	0.097753	0.000000	0.126089
0_0711	5	0.000000	0.000000	0.052996
0_0712	2	0.001530	0.001530	0.001530
0_0713	4	0.047537	0.000041	0.047585
0_0714	2	0.000439	0.000439	0.000439
0_0715	2	0.049372	0.049372	0.049372
0_0716	3	0.040420	0.000145	0.040503
0_0717	1			
0_0718	1			
0_0719	2	0.122255	0.122255	0.122255
0_0720	2	0.000000	0.000000	0.000000
0_0721	2	0.122026	0.122026	0.122026
0_0722	1			
0_0723	1			
0_0724	1			
0_0725	1			
0_0726	1			
0_0727	1			
0_0728	8	0.089341	0.000000	0.127359
0_0729	6	0.138243	0.000000	0.142187
0_0730	2	0.024300	0.024300	0.024300
0_0731	2	0.000127	0.000127	0.000127
0_0732	2	0.009458	0.009458	0.009458
0_0733	2	0.060502	0.060502	0.060502
0_0734	2	0.023590	0.023590	0.023590
0_0735	2	0.000000	0.000000	0.000000
0_0736	2	0.079277	0.079277	0.079277
0_0737	2	0.136948	0.136948	0.136948
0_0738	2	0.078259	0.078259	0.078259
0_0739	1			
0_0740	1			
0_0741	1			
0_0742	1			
0_0743	1			
0_0744	1			
0_0745	1			
0_0746	1			
0_0747	1			
0_0748	1			
0_0749	1			
0_0750	2	0.000011	0.000011	0.000011
0_0751	2	0.000000	0.000000	0.000000
0_0752	2	0.072203	0.072203	0.072203
0_0753	1			
0_0754	1			
0_0755	1			
0_0756	1			
0_0757	7	0.000106	0.000000	0.001623
0_0758	4	0.053909	0.013881	0.087853
0_0759	2	0.000011	0.000011	0.000011
0_0760	1			
0_0761	1			
0_0762	3	0.142547	0.061071	0.171944
0_0763	2	0.000000	0.000000	0.000000
0_0764	1			
0_0765	1			
0_0766	1			
0_0767	1			
0_0768	1			
0_0769	1			
0_0770	2	0.000000	0.000000	0.000000
0_0771	2	0.000011	0.000011	0.000011
0_0772	1			
0_0773	1			
0_0774	1			
0_0775	1			
0_0776	1			
0_0777	1			
0_0778	1			
0_0779	3	0.103367	0.034585	1.000000
0_0780	1			
0_0781	1			
0_0782	6	0.129065	0.088367	1.000000
0_0783	2	0.000000	0.000000	0.000000
0_0784	1			
0_0785	13	0.067876	0.000000	1.000000
0_0786	1			
0_0787	1			
0_0788	4	0.000010	0.000000	0.000021
0_0789	2	0.000212	0.000212	0.000212
0_0790	2	0.000000	0.000000	0.000000
0_0791	1			
0_0792	1			
0_0793	1			
0_0794	1			
0_0795	3	0.000002	0.000000	0.000002
0_0796	2	0.117167	0.117167	0.117167
0_0797	1			
0_0798	1			
0_0799	2	0.100221	0.100221	0.100221
0_0800	2	0.000000	0.000000	0.000000
0_0801	1			
0_0802	2	0.110193	0.110193	0.110193
0_0803	1			
0_0804	1			
0_0805	8	0.066300	0.015002	1.000000
0_0806	6	0.102704	0.020306	1.000000
0_0807	2	0.111970	0.111970	0.111970
0_0808	1			
0_0809	8	0.153895	0.022219	1.000000
0_0810	6	0.184912	0.004477	1.000000
0_0811	1			
0_0812	1			
