clade_id	A	B1	B2	C	D	E	F	G	clade	Other	total
0_0000	2	0	86	0	0	12	0	0	0	0	100
0_0001	7	34	49	1	0	8	0	0	1	0	100
0_0002	5	30	43	3	8	6	0	5	0	0	100
0_0003	4	18	62	3	4	4	0	3	0	2	100
0_0004	14	35	22	1	25	2	0	0	0	1	100
0_0005	15	47	15	4	10	9	0	0	0	0	100
0_0006	10	34	30	0	6	17	2	1	0	0	100
0_0007	3	47	6	6	2	36	0	0	0	0	100
0_0008	10	50	11	1	13	15	0	0	0	0	100
0_0009	9	10	18	0	34	13	16	0	0	0	100
0_0010	12	6	65	0	1	16	0	0	0	0	100
0_0011	17	17	50	0	8	2	3	1	2	0	100
0_0012	14	34	35	2	5	8	0	1	1	0	100
0_0013	18	45	13	5	8	9	0	1	0	1	100
0_0014	21	22	45	0	10	1	0	0	0	1	100
0_0015	28	16	28	1	3	21	1	2	0	0	100
0_0016	21	34	17	13	4	10	0	1	0	0	100
0_0017	7	25	57	1	5	3	1	0	1	0	100
0_0018	26	24	20	7	5	8	8	2	0	0	100
0_0019	16	3	79	1	1	0	0	0	0	0	100
0_0020	10	24	43	1	3	12	1	5	1	0	100
0_0021	18	25	45	1	3	6	2	0	0	0	100
0_0022	9	23	26	2	16	7	5	12	0	0	100
0_0023	24	24	17	5	8	20	1	1	0	0	100
0_0024	39	19	22	6	3	3	3	5	0	0	100
0_0025	22	46	20	4	4	1	1	0	1	1	100
0_0026	7	16	12	2	0	61	1	1	0	0	100
0_0027	21	51	10	2	4	6	4	1	0	1	100
0_0028	19	40	28	4	3	4	1	1	0	0	100
0_0029	6	29	3	1	2	4	0	0	0	0	45
0_0030	4	5	4	0	0	12	0	0	0	0	25
0_0031	2	0	5	0	0	2	0	0	0	0	9
0_0032	4	50	20	0	2	22	2	0	0	0	100
0_0033	20	49	14	8	0	7	1	1	0	0	100
0_0034	13	35	26	3	6	13	3	0	1	0	100
0_0035	25	19	24	1	4	2	1	3	1	1	81
0_0036	9	21	43	2	15	1	8	0	1	0	100
0_0037	6	25	2	0	0	2	0	0	0	0	35
0_0038	17	53	18	1	4	5	1	0	1	0	100
0_0039	12	34	12	0	4	29	0	2	0	0	93
0_0040	15	19	45	0	7	10	3	1	0	0	100
0_0041	13	30	29	1	9	8	0	0	1	0	91
0_0042	4	0	0	0	0	0	0	0	0	0	4
0_0043	2	41	3	0	0	53	1	0	0	0	100
0_0044	10	17	18	5	5	2	1	1	0	0	59
0_0045	15	21	35	4	20	2	1	0	1	1	100
0_0046	3	30	16	0	6	8	0	0	0	1	64
0_0047	4	7	11	0	4	0	4	0	0	0	30
0_0048	2	9	25	3	2	1	1	0	1	0	44
0_0049	16	1	0	3	0	0	0	0	0	0	20
0_0050	1	2	0	0	0	0	0	0	0	0	3
0_0051	3	2	0	0	0	0	0	0	0	0	5
0_0052	6	19	35	0	4	4	4	0	0	0	72
0_0053	15	17	25	0	3	3	2	0	0	0	65
0_0054	7	8	12	1	0	1	0	0	0	0	29
0_0055	0	7	0	0	0	0	0	0	0	0	7
0_0056	3	0	1	0	0	0	0	0	0	0	4
0_0057	0	1	0	0	0	0	0	0	0	0	1
0_0058	3	19	9	0	2	1	7	1	0	0	42
0_0059	2	1	2	0	0	0	0	0	0	1	6
0_0060	0	1	2	1	3	1	0	0	0	0	8
0_0061	0	1	1	0	0	0	0	0	0	0	2
0_0062	1	0	0	0	0	0	0	0	0	0	1
0_0063	2	1	0	0	0	0	0	0	0	0	3
0_0064	1	0	1	0	0	0	0	0	0	0	2
0_0065	1	0	0	0	0	0	0	0	0	0	1
0_0066	0	0	0	0	1	0	0	0	0	0	1
0_0067	4	0	0	0	0	0	0	0	0	0	4
0_0068	0	2	0	0	0	0	0	0	0	0	2
0_0069	1	0	0	0	0	0	0	0	0	0	1
0_0070	0	0	0	0	1	0	0	0	0	0	1
0_0071	0	0	0	2	0	0	0	0	0	0	2
0_0072	1	0	0	0	0	0	0	0	0	0	1
0_0073	1	0	0	0	0	0	0	0	0	0	1
0_0074	1	0	0	0	0	0	0	0	0	0	1
0_0075	13	29	4	0	0	4	0	0	0	0	50
0_0076	4	15	21	0	0	9	1	0	0	0	50
0_0077	9	15	7	1	1	13	0	4	0	0	50
0_0078	41	1	0	0	1	11	0	0	0	0	54
0_0079	0	0	1	0	0	0	0	0	0	0	1
0_0080	0	5	2	0	0	5	0	0	0	0	12
0_0081	1	5	2	0	0	1	0	0	0	0	9
0_0082	1	5	0	0	0	9	0	0	0	0	15
0_0083	2	0	0	0	0	2	0	0	0	0	4
0_0084	1	3	1	0	0	0	0	0	0	0	5
0_0085	8	22	5	0	1	1	0	0	0	0	37
0_0086	11	2	29	1	1	1	0	0	0	0	45
0_0087	1	0	0	0	0	0	0	0	0	0	1
0_0088	1	0	0	0	0	0	0	0	0	0	1
0_0089	0	0	1	0	0	0	0	0	0	0	1
0_0090	11	6	0	2	0	0	0	1	0	0	20
0_0091	3	0	0	1	0	0	0	0	0	0	4
0_0092	1	0	3	0	0	0	0	0	0	0	4
0_0093	2	1	0	0	0	0	0	0	0	0	3
0_0094	2	0	0	0	0	0	0	0	0	0	2
0_0095	1	0	0	0	0	0	0	0	0	0	1
0_0096	3	1	2	1	0	18	0	0	0	0	25
0_0097	0	7	0	0	0	0	0	0	0	0	7
0_0098	1	4	2	0	1	0	0	0	0	0	8
0_0099	11	1	1	0	0	0	0	0	0	0	13
0_0100	1	5	0	0	0	0	0	0	0	0	6
0_0101	1	3	1	0	1	0	0	0	0	0	6
10_0000	4	14	62	3	4	2	4	6	0	1	100
10_0001	18	8	51	3	5	3	11	1	0	0	100
10_0002	17	12	56	1	3	7	1	2	1	0	100
10_0003	11	12	43	2	2	22	2	4	1	1	100
10_0004	10	14	26	4	18	12	13	3	0	0	100
10_0005	27	26	18	3	11	13	1	1	0	0	100
10_0006	26	15	28	12	13	1	4	1	0	0	100
10_0007	42	20	18	3	5	10	1	0	1	0	100
10_0008	21	31	15	0	8	20	4	1	0	0	100
10_0009	16	40	25	0	7	8	2	0	2	0	100
10_0010	13	24	51	0	8	2	1	1	0	0	100
10_0011	57	20	11	0	7	2	2	1	0	0	100
10_0012	27	35	13	0	3	15	0	5	1	1	100
10_0013	51	25	9	1	7	7	0	0	0	0	100
10_0014	28	39	4	7	2	12	2	5	1	0	100
10_0015	35	36	9	10	1	7	0	1	1	0	100
10_0016	33	31	14	1	8	10	2	0	0	1	100
10_0017	32	35	15	3	3	11	1	0	0	0	100
10_0018	10	16	48	3	6	16	1	0	0	0	100
10_0019	8	34	32	1	9	11	3	2	0	0	100
10_0020	15	16	29	1	20	17	1	1	0	0	100
10_0021	20	28	32	4	8	4	3	1	0	0	100
10_0022	23	31	9	3	12	18	0	3	0	1	100
10_0023	13	35	33	4	10	2	2	0	1	0	100
10_0024	11	36	12	1	10	29	0	0	0	1	100
10_0025	31	24	11	5	13	10	4	2	0	0	100
10_0026	17	22	19	0	18	17	3	2	2	0	100
10_0027	13	30	25	1	4	21	2	4	0	0	100
10_0028	11	27	9	1	7	27	0	1	0	0	83
10_0029	5	3	7	0	1	1	0	1	0	0	18
10_0030	16	44	19	13	2	3	1	2	0	0	100
10_0031	8	22	0	3	1	66	0	0	0	0	100
10_0032	1	8	1	0	0	25	0	0	0	0	35
10_0033	11	13	3	1	1	3	1	2	0	0	35
10_0034	10	38	5	1	8	35	0	3	0	0	100
10_0035	0	2	7	0	0	8	1	0	0	0	18
10_0036	4	11	1	0	0	0	0	0	0	0	16
10_0037	24	7	1	1	13	0	1	1	0	0	48
10_0038	3	3	1	0	0	0	0	0	0	1	8
10_0039	7	20	11	0	1	1	0	0	0	0	40
10_0040	16	38	4	1	1	17	0	3	0	0	80
10_0041	0	3	1	0	0	1	0	0	0	0	5
10_0042	4	4	0	0	0	0	0	0	0	0	8
10_0043	1	0	0	0	0	0	0	0	0	0	1
10_0044	0	2	0	0	0	1	0	0	0	0	3
10_0045	2	17	8	0	3	1	5	1	0	0	37
10_0046	1	0	0	1	0	0	0	0	0	0	2
10_0047	1	1	0	0	0	5	0	0	0	0	7
10_0048	0	0	2	0	0	0	0	0	0	0	2
10_0049	0	0	3	0	0	0	0	0	0	0	3
10_0050	1	2	2	0	0	0	0	0	0	0	5
10_0051	0	1	0	0	0	0	0	0	0	0	1
10_0052	1	4	3	0	0	0	8	0	0	0	16
10_0053	0	1	0	0	0	0	0	0	0	0	1
10_0054	0	0	0	0	2	0	0	0	0	0	2
10_0055	1	1	0	0	0	0	0	0	0	0	2
10_0056	1	1	0	1	0	1	0	0	0	0	4
10_0057	1	0	1	0	0	0	0	0	0	0	2
10_0058	3	0	0	0	0	0	0	0	0	0	3
10_0059	0	0	1	0	0	0	0	0	0	0	1
10_0060	1	0	0	0	0	0	0	0	0	0	1
10_0061	0	0	1	0	1	0	0	0	0	0	2
10_0062	2	0	0	0	0	0	0	0	0	0	2
10_0063	0	1	0	0	0	0	0	0	0	0	1
10_0064	0	0	0	1	0	0	0	0	0	0	1
10_0065	0	6	0	0	0	0	0	0	0	0	6
10_0066	0	0	0	0	1	0	0	0	0	0	1
10_0067	0	1	0	0	1	0	0	0	0	0	2
10_0068	1	0	1	0	0	0	0	0	0	0	2
10_0069	0	1	0	0	0	0	0	0	0	0	1
10_0070	1	0	0	0	0	0	0	0	0	1	2
10_0071	0	0	0	0	1	0	0	0	0	0	1
10_0072	4	17	13	8	2	2	1	1	1	1	50
10_0073	0	2	2	0	3	0	0	2	0	0	9
10_0074	0	3	0	0	0	0	0	0	0	0	3
10_0075	12	10	9	0	6	13	0	0	0	0	50
10_0076	6	12	8	0	20	4	0	0	0	0	50
10_0077	2	0	0	0	0	0	0	0	0	0	2
10_0078	2	3	1	0	2	1	0	0	0	0	9
10_0079	0	1	1	0	0	0	0	0	0	0	2
10_0080	16	4	9	4	6	6	4	4	1	0	54
10_0081	6	10	3	0	2	11	0	0	0	0	32
10_0082	1	4	0	1	1	0	1	0	0	0	8
10_0083	0	1	2	0	0	0	0	3	0	0	6
10_0084	1	1	2	0	0	2	1	0	0	0	7
10_0085	3	1	0	0	0	0	0	0	0	0	4
10_0086	0	1	0	0	0	0	0	0	0	0	1
10_0087	0	3	0	0	1	0	0	0	0	0	4
10_0088	0	1	0	1	0	0	0	0	0	0	2
10_0089	4	0	3	0	4	0	0	0	0	0	11
10_0090	2	1	0	0	0	0	0	0	0	0	3
10_0091	0	2	0	0	0	0	0	0	0	0	2
10_0092	0	1	0	0	0	0	0	0	0	0	1
10_0093	8	23	6	0	3	18	0	0	0	0	58
10_0094	7	8	0	0	0	2	1	0	0	0	18
10_0095	2	14	0	0	1	2	0	0	0	0	19
10_0096	0	3	0	0	0	0	0	0	0	0	3
10_0097	0	1	0	0	0	0	0	0	0	0	1
10_0098	0	0	0	0	0	1	0	0	0	0	1
10_0099	8	7	10	1	3	3	1	0	0	1	34
10_0100	3	10	1	0	1	6	0	0	0	0	21
10_0101	7	7	4	1	1	2	1	2	0	0	25
10_0102	2	4	5	0	3	1	0	3	0	0	18
10_0103	1	1	0	0	0	0	0	0	0	0	2
10_0104	5	8	0	1	0	1	1	0	0	0	16
10_0105	0	1	0	0	0	1	0	0	0	0	2
10_0106	2	2	1	0	1	0	0	1	0	0	7
10_0107	1	1	0	0	0	0	1	0	0	0	3
10_0108	0	0	0	0	0	0	0	1	0	0	1
10_0109	2	0	0	0	0	0	0	0	0	0	2
10_0110	0	9	0	0	0	0	0	0	0	0	9
10_0111	2	0	0	0	2	0	0	0	0	0	4
10_0112	2	0	0	0	0	4	0	0	0	0	6
10_0113	0	1	0	0	0	0	0	0	0	0	1
10_0114	0	0	0	0	0	1	0	0	0	0	1
10_0115	1	0	0	0	0	5	0	0	0	0	6
10_0116	8	0	0	0	0	0	0	0	0	0	8
10_0117	2	1	0	0	1	1	0	0	0	0	5
10_0118	0	0	2	0	0	0	0	0	0	0	2
10_0119	0	0	1	0	0	0	0	0	0	0	1
10_0120	0	1	0	0	1	0	0	0	0	0	2
10_0121	2	0	0	0	0	0	0	0	0	0	2
10_0122	0	0	1	0	0	1	0	0	0	0	2
10_0123	0	1	0	0	0	0	0	0	0	0	1
10_0124	0	1	0	0	0	0	0	0	0	0	1
10_0125	0	0	0	0	0	0	0	1	0	0	1
10_0126	15	2	0	0	0	0	0	0	0	0	17
10_0127	1	0	0	0	0	1	0	0	0	0	2
10_0128	0	0	1	0	1	0	0	0	0	0	2
10_0129	0	0	1	0	0	0	0	0	0	0	1
10_0130	0	1	0	0	0	0	0	0	0	0	1
10_0131	1	6	11	0	0	4	0	0	1	0	23
10_0132	2	11	13	0	0	0	1	0	0	0	27
10_0133	0	0	2	0	0	1	0	0	0	0	3
10_0134	1	0	0	0	0	0	0	0	0	0	1
10_0135	1	0	0	0	0	0	0	0	0	0	1
10_0136	0	1	0	0	0	0	0	0	0	0	1
10_0137	1	0	0	0	0	0	0	0	0	0	1
10_0138	0	0	1	0	0	0	0	0	0	0	1
10_0139	1	0	0	0	0	0	0	0	0	0	1
10_0140	1	22	0	0	1	0	1	0	0	0	25
10_0141	1	2	6	0	32	2	1	0	0	0	44
10_0142	12	15	5	3	0	11	0	3	0	0	49
10_0143	9	6	6	9	3	6	2	3	0	0	44
10_0144	4	11	17	0	4	3	2	1	0	0	42
10_0145	20	2	3	0	2	15	0	0	0	0	42
10_0146	9	8	18	1	4	3	3	3	0	0	49
10_0147	6	5	25	2	0	2	1	0	0	0	41
10_0148	7	15	4	0	2	4	1	1	0	0	34
10_0149	13	14	2	0	1	5	0	0	0	0	35
10_0150	5	12	8	0	5	4	4	0	0	0	38
10_0151	0	7	22	0	8	0	0	0	1	0	38
10_0152	1	4	22	0	9	3	0	0	0	0	39
10_0153	19	4	0	0	0	2	0	0	0	0	25
10_0154	2	1	2	0	1	1	0	0	0	0	7
10_0155	1	3	1	0	0	6	2	0	0	0	13
10_0156	0	2	0	0	0	0	0	0	0	0	2
10_0157	2	2	7	0	2	8	2	1	0	0	24
10_0158	4	4	10	0	2	4	0	0	1	0	25
10_0159	2	1	1	0	0	0	0	0	0	0	4
10_0160	0	0	0	0	0	0	0	1	1	0	2
10_0161	0	6	1	0	0	1	0	0	0	0	8
10_0162	0	1	0	0	0	0	0	0	0	0	1
10_0163	0	0	1	0	2	0	0	0	0	0	3
10_0164	2	7	3	0	0	0	0	0	0	0	12
10_0165	1	7	5	0	0	1	0	0	0	0	14
10_0166	0	1	1	0	1	0	1	0	0	0	4
10_0167	0	1	4	0	0	0	0	0	0	0	5
10_0168	0	1	0	0	0	0	0	0	0	0	1
10_0169	0	1	0	0	0	0	0	0	0	0	1
10_0170	3	12	0	0	0	4	0	0	0	0	19
10_0171	5	10	0	0	0	1	0	0	0	0	16
10_0172	2	1	0	0	0	0	0	0	0	0	3
10_0173	0	0	2	0	0	0	0	4	0	0	6
10_0174	2	2	0	1	16	0	0	0	0	0	21
10_0175	3	6	1	0	1	6	1	1	0	0	19
10_0176	2	4	7	0	0	6	0	0	1	0	20
10_0177	3	9	3	0	1	2	0	1	1	0	20
10_0178	0	4	0	0	0	1	0	0	0	1	6
10_0179	0	6	0	0	0	0	0	0	0	0	6
10_0180	0	3	0	0	0	6	0	0	0	0	9
10_0181	1	5	0	0	0	4	0	0	0	0	10
10_0182	2	3	0	0	0	1	0	0	0	0	6
10_0183	1	4	1	0	0	0	0	0	0	0	6
10_0184	1	0	0	0	0	0	0	0	0	0	1
10_0185	0	0	1	0	0	2	0	0	0	0	3
10_0186	0	0	0	0	11	0	0	0	0	0	11
10_0187	0	3	0	0	0	0	0	0	0	0	3
10_0188	0	3	0	0	1	6	0	0	0	0	10
10_0189	1	7	1	0	0	1	0	0	0	0	10
10_0190	2	3	0	0	0	4	0	0	0	0	9
10_0191	0	7	0	0	0	3	0	0	0	0	10
10_0192	0	1	0	0	0	0	0	0	0	0	1
10_0193	0	1	0	0	0	0	0	0	0	0	1
10_0194	0	1	0	0	0	0	0	0	0	0	1
10_0195	1	1	1	0	0	0	0	2	0	0	5
10_0196	0	1	0	0	0	7	0	0	0	0	8
10_0197	0	2	1	0	0	6	0	0	0	0	9
10_0198	0	0	0	0	0	2	0	0	0	0	2
10_0199	0	0	0	0	0	3	0	0	0	0	3
11_0000	9	35	17	0	2	1	1	0	0	0	65
1_0000	14	39	28	3	4	5	4	2	1	0	100
1_0001	19	18	34	1	17	9	0	1	1	0	100
1_0002	6	9	64	2	13	5	0	0	1	0	100
1_0003	17	19	18	1	34	3	6	1	0	1	100
1_0004	10	44	31	0	2	8	3	0	0	2	100
1_0005	4	28	44	1	1	19	3	0	0	0	100
1_0006	11	45	25	5	2	7	2	1	2	0	100
1_0007	14	25	37	5	6	6	3	3	1	0	100
1_0008	13	42	25	10	4	3	2	1	0	0	100
1_0009	12	50	18	4	9	3	4	0	0	0	100
1_0010	22	26	29	4	14	2	1	1	1	0	100
1_0011	38	25	19	3	12	2	0	1	0	0	100
1_0012	46	29	14	8	1	1	0	1	0	0	100
1_0013	36	26	27	1	7	1	2	0	0	0	100
1_0014	16	50	5	13	1	12	2	0	0	1	100
1_0015	24	43	10	1	9	11	2	0	0	0	100
1_0016	2	12	10	1	0	22	0	0	0	0	47
1_0017	14	18	19	0	9	2	11	1	0	0	74
1_0018	0	0	1	1	0	0	0	0	0	0	2
1_0019	4	3	3	0	0	0	1	0	0	0	11
1_0020	0	0	1	0	0	8	0	0	0	0	9
1_0021	14	1	0	0	0	0	0	0	0	0	15
1_0022	1	1	3	0	1	0	0	0	0	0	6
1_0023	7	8	8	0	1	0	0	0	0	0	24
1_0024	0	5	3	0	0	0	0	0	0	0	8
1_0025	5	3	1	0	1	1	0	0	0	0	11
1_0026	3	18	0	1	1	3	0	0	0	0	26
1_0027	1	1	0	0	0	1	0	0	0	1	4
1_0028	0	1	0	0	0	0	0	0	0	0	1
1_0029	0	1	0	0	1	0	0	0	0	0	2
1_0030	3	0	0	0	0	0	0	0	0	0	3
1_0031	2	0	0	0	0	0	0	0	0	0	2
1_0032	1	0	0	0	1	1	0	0	0	0	3
1_0033	0	1	0	0	0	0	0	0	0	0	1
1_0034	0	0	0	0	0	1	0	0	0	0	1
1_0035	1	0	0	0	0	0	0	0	0	0	1
1_0036	1	0	0	0	1	0	0	0	0	0	2
1_0037	1	0	0	0	0	0	0	0	0	0	1
1_0038	1	0	0	0	0	0	0	0	0	0	1
1_0039	6	20	9	1	2	4	7	1	0	0	50
1_0040	21	18	8	1	2	0	0	0	0	0	50
1_0041	1	1	0	0	0	0	0	0	0	0	2
1_0042	0	2	0	0	0	0	0	0	0	0	2
1_0043	0	0	1	0	0	0	0	0	0	0	1
1_0044	0	3	0	0	0	0	0	0	0	0	3
1_0045	4	0	1	0	0	0	0	0	0	0	5
1_0046	25	0	0	0	0	0	0	0	0	0	25
1_0047	15	7	1	0	2	0	0	0	0	0	25
1_0048	5	19	3	0	1	2	0	0	0	0	30
1_0049	9	1	0	0	0	0	2	0	0	0	12
1_0050	3	3	2	3	0	1	0	0	0	0	12
1_0051	1	8	2	2	0	0	0	0	0	0	13
1_0052	2	11	0	0	0	1	1	0	0	0	15
1_0053	7	6	0	0	1	1	0	0	0	0	15
1_0054	0	4	2	0	0	0	0	0	0	0	6
1_0055	0	3	0	0	0	0	0	0	0	0	3
1_0056	0	2	0	0	0	0	0	0	0	0	2
1_0057	0	2	0	0	0	0	0	0	0	0	2
2_0000	10	28	3	0	12	46	0	0	1	0	100
2_0001	19	17	9	4	1	48	1	0	0	1	100
2_0002	32	31	16	1	8	12	0	0	0	0	100
2_0003	18	31	44	2	2	1	0	2	0	0	100
2_0004	7	22	44	3	21	1	1	1	0	0	100
2_0005	10	24	26	0	17	22	0	0	1	0	100
2_0006	12	28	26	3	9	16	2	3	1	0	100
2_0007	11	23	45	5	11	0	1	3	0	1	100
2_0008	29	18	26	3	10	12	2	0	0	0	100
2_0009	33	21	27	8	4	1	6	0	0	0	100
2_0010	23	25	15	1	1	32	1	1	1	0	100
2_0011	15	17	32	7	2	3	23	0	1	0	100
2_0012	8	24	7	0	3	58	0	0	0	0	100
2_0013	24	33	10	0	4	25	2	2	0	0	100
2_0014	14	32	28	14	7	2	2	1	0	0	100
2_0015	21	49	25	3	2	0	0	0	0	0	100
2_0016	3	0	3	0	0	0	1	1	0	0	8
2_0017	41	21	7	26	0	1	2	0	1	1	100
2_0018	19	19	14	0	12	35	0	1	0	0	100
2_0019	26	45	11	2	1	5	1	0	0	0	91
2_0020	25	42	23	1	2	3	2	0	1	1	100
2_0021	1	1	1	0	0	0	1	0	0	0	4
2_0022	36	20	33	0	2	9	0	0	0	0	100
2_0023	18	29	15	0	1	10	0	0	0	0	73
2_0024	6	3	0	1	0	0	0	2	0	0	12
2_0025	0	47	0	0	3	0	0	0	0	0	50
2_0026	1	3	4	0	0	0	0	0	0	0	8
2_0027	9	7	2	1	0	0	1	0	0	0	20
2_0028	6	0	0	0	0	0	0	0	0	0	6
2_0029	1	1	0	0	1	0	0	0	0	0	3
2_0030	8	0	6	0	2	0	0	0	0	0	16
2_0031	9	6	12	0	1	0	0	0	0	1	29
2_0032	2	0	1	0	0	0	0	0	0	0	3
2_0033	0	2	2	0	0	0	0	0	0	0	4
2_0034	0	13	0	0	5	0	49	0	3	0	70
2_0035	0	0	1	0	0	0	0	0	0	0	1
2_0036	5	0	0	0	0	0	0	0	0	0	5
2_0037	0	0	1	0	0	0	0	0	0	0	1
2_0038	2	0	0	0	0	0	0	0	0	0	2
2_0039	2	1	0	0	0	0	0	0	0	0	3
2_0040	12	4	10	0	1	0	0	0	0	0	27
2_0041	1	0	0	0	0	0	0	0	0	0	1
2_0042	0	0	0	0	0	1	0	0	0	0	1
2_0043	3	0	0	0	0	0	0	0	0	0	3
2_0044	4	0	0	0	0	1	0	0	0	0	5
2_0045	0	0	3	0	0	0	0	0	0	0	3
2_0046	1	0	0	0	0	0	0	0	0	0	1
2_0047	1	0	0	0	0	0	0	0	0	0	1
2_0048	0	0	3	0	0	0	0	0	0	0	3
2_0049	0	2	1	0	0	0	0	0	0	0	3
2_0050	2	0	0	0	0	0	0	0	0	0	2
2_0051	9	22	9	1	4	3	0	2	0	0	50
2_0052	8	26	7	1	3	2	0	2	1	0	50
2_0053	5	5	1	0	1	18	0	0	0	0	30
2_0054	10	4	16	0	8	0	0	0	0	0	38
2_0055	1	9	1	0	0	5	0	0	0	0	16
2_0056	2	12	0	0	1	0	0	0	0	1	16
2_0057	3	0	0	0	0	0	0	0	0	0	3
2_0058	0	1	0	1	0	0	0	0	0	0	2
2_0059	1	0	1	0	0	0	0	0	0	0	2
2_0060	0	0	1	0	0	0	0	0	0	0	1
2_0061	1	0	0	0	0	0	0	0	0	0	1
2_0062	1	0	0	0	0	0	0	0	0	0	1
2_0063	2	0	0	0	0	0	0	0	0	0	2
2_0064	0	1	0	0	0	0	0	0	0	0	1
2_0065	1	0	0	0	0	0	0	0	0	0	1
2_0066	0	0	0	0	0	1	0	0	0	0	1
2_0067	1	0	0	0	0	0	0	0	0	0	1
2_0068	0	1	0	0	0	0	0	0	0	0	1
2_0069	10	1	0	0	0	0	0	0	0	0	11
2_0070	1	0	0	0	0	0	0	0	0	0	1
2_0071	1	0	0	0	0	0	0	0	0	0	1
2_0072	2	6	3	0	1	2	1	0	0	0	15
2_0073	0	0	4	0	3	0	0	0	0	0	7
2_0074	2	1	0	0	5	0	0	0	0	0	8
2_0075	21	8	4	5	0	4	3	1	0	0	46
2_0076	18	15	10	2	0	1	0	0	0	1	47
2_0077	0	2	4	1	0	0	0	0	0	0	7
2_0078	2	1	0	0	0	0	0	0	0	0	3
2_0079	0	0	2	0	0	0	0	0	0	0	2
2_0080	0	0	2	0	0	0	0	0	0	0	2
3_0000	18	15	26	0	7	2	8	24	0	0	100
3_0001	14	36	39	0	3	5	0	3	0	0	100
3_0002	7	14	9	0	0	70	0	0	0	0	100
3_0003	12	30	12	1	1	43	1	0	0	0	100
3_0004	3	21	37	0	1	38	0	0	0	0	100
3_0005	0	5	1	0	0	94	0	0	0	0	100
3_0006	6	18	17	0	2	54	3	0	0	0	100
3_0007	39	19	26	1	5	3	4	0	2	1	100
3_0008	5	2	2	0	1	1	0	2	0	0	13
3_0009	16	21	24	0	5	17	16	0	1	0	100
3_0010	2	2	2	0	0	2	0	0	0	0	8
3_0011	3	3	5	0	2	0	0	0	0	0	13
3_0012	0	2	3	0	0	2	0	0	0	0	7
3_0013	0	3	2	0	0	0	0	0	0	0	5
3_0014	2	56	7	0	0	1	0	0	0	0	66
3_0015	0	1	0	0	0	3	0	0	0	0	4
3_0016	4	3	4	0	1	0	0	0	0	1	13
3_0017	0	0	1	0	0	0	0	0	0	0	1
3_0018	0	0	1	0	0	0	0	0	0	0	1
3_0019	0	0	0	0	1	0	0	0	0	0	1
3_0020	0	1	0	0	0	0	0	0	0	0	1
3_0021	1	0	0	0	0	0	0	0	0	0	1
3_0022	11	53	3	0	0	29	0	0	0	0	96
3_0023	1	2	0	0	0	0	0	0	0	0	3
3_0024	0	0	0	0	0	1	0	0	0	0	1
3_0025	2	0	0	0	0	0	0	0	0	0	2
3_0026	3	4	2	1	1	0	0	1	0	0	12
3_0027	1	1	0	0	0	1	0	0	0	0	3
3_0028	6	18	5	0	0	6	6	0	0	1	42
3_0029	0	14	0	0	0	5	0	1	0	0	20
3_0030	2	8	0	0	0	0	0	0	0	0	10
3_0031	1	0	1	0	0	4	0	0	0	0	6
3_0032	0	2	0	0	0	0	0	0	0	0	2
3_0033	0	1	0	0	0	0	0	0	0	0	1
3_0034	0	1	0	0	0	0	0	0	0	0	1
3_0035	0	1	0	0	0	0	0	0	0	0	1
4_0000	22	12	18	2	3	42	1	0	0	0	100
4_0001	17	22	41	3	1	14	0	2	0	0	100
4_0002	9	51	26	1	6	5	0	2	0	0	100
4_0003	5	64	24	1	2	2	1	1	0	0	100
4_0004	7	58	30	2	2	0	1	0	0	0	100
4_0005	5	56	21	2	6	6	1	2	1	0	100
4_0006	11	49	22	0	6	8	2	2	0	0	100
4_0007	11	37	32	2	3	12	2	1	0	0	100
4_0008	23	36	26	1	4	5	0	3	1	1	100
4_0009	1	0	28	0	0	0	0	0	0	0	29
4_0010	4	5	4	0	0	87	0	0	0	0	100
4_0011	4	37	49	2	2	2	3	1	0	0	100
4_0012	3	10	19	1	2	4	1	2	0	0	42
4_0013	1	1	0	0	0	0	0	0	0	0	2
4_0014	0	1	0	0	0	0	0	0	0	0	1
4_0015	17	9	63	0	2	0	8	0	0	1	100
4_0016	19	35	3	0	0	43	0	0	0	0	100
4_0017	1	5	91	0	2	1	0	0	0	0	100
4_0018	1	1	0	4	0	0	0	0	0	0	6
4_0019	11	67	3	0	0	18	0	0	0	1	100
4_0020	5	0	85	1	3	0	6	0	0	0	100
4_0021	12	11	65	1	7	0	3	1	0	0	100
4_0022	9	1	53	0	0	0	2	0	0	0	65
4_0023	7	46	15	7	1	3	0	0	0	0	79
4_0024	1	5	9	0	7	0	4	1	0	0	27
4_0025	3	17	0	0	0	1	0	0	0	0	21
4_0026	2	3	3	0	2	0	0	0	0	0	10
4_0027	0	0	100	0	0	0	0	0	0	0	100
4_0028	0	7	67	0	0	0	0	0	0	2	76
4_0029	4	12	5	0	0	2	2	0	0	0	25
4_0030	2	3	1	0	0	0	0	0	0	0	6
4_0031	0	4	14	0	0	0	0	0	0	0	18
4_0032	2	29	1	0	0	67	0	1	0	0	100
4_0033	24	39	5	0	0	19	0	0	0	0	87
4_0034	6	4	4	0	1	0	0	0	0	0	15
4_0035	2	1	3	0	0	1	0	0	0	0	7
4_0036	1	7	5	3	0	0	0	0	0	0	16
4_0037	1	1	0	0	0	0	0	0	0	0	2
4_0038	0	1	0	0	0	0	0	0	0	0	1
4_0039	0	3	6	0	1	7	0	0	0	0	17
4_0040	0	1	0	0	0	0	0	0	0	0	1
4_0041	0	1	1	0	0	0	0	0	0	0	2
4_0042	1	0	1	0	1	0	0	0	0	0	3
4_0043	0	1	0	0	0	0	0	0	0	0	1
4_0044	0	1	0	0	0	0	0	2	0	0	3
4_0045	0	2	0	0	0	0	0	0	0	0	2
4_0046	3	4	1	0	0	0	0	0	0	0	8
4_0047	0	2	0	0	1	0	0	0	0	0	3
4_0048	0	0	0	0	0	1	0	0	0	0	1
4_0049	2	2	3	0	0	0	0	0	0	0	7
4_0050	5	0	0	0	1	0	0	0	0	0	6
4_0051	1	0	1	1	0	0	0	0	0	0	3
4_0052	2	0	0	0	0	0	0	0	0	0	2
4_0053	0	1	0	0	0	0	0	0	0	0	1
4_0054	0	1	0	0	0	0	0	0	0	0	1
4_0055	0	0	2	0	0	0	0	0	0	0	2
4_0056	0	0	1	0	0	0	0	0	0	0	1
4_0057	0	0	0	0	0	1	0	0	0	0	1
4_0058	0	1	0	0	0	0	0	0	0	0	1
4_0059	1	0	0	0	0	0	0	0	0	0	1
4_0060	1	0	0	0	0	0	0	0	0	0	1
4_0061	16	15	11	1	1	4	0	1	1	0	50
4_0062	6	5	38	0	1	0	0	0	0	0	50
4_0063	0	5	2	8	0	0	0	0	0	0	15
4_0064	1	5	0	0	1	0	0	0	0	0	7
4_0065	1	0	0	0	1	0	0	0	0	0	2
4_0066	0	0	0	0	0	1	0	0	0	0	1
4_0067	0	0	0	0	0	0	0	0	1	0	1
4_0068	2	0	0	0	0	0	0	0	0	0	2
4_0069	0	0	1	0	0	0	0	0	0	0	1
4_0070	2	1	0	0	0	0	0	0	0	0	3
4_0071	1	0	0	0	0	0	0	0	0	0	1
4_0072	0	0	0	0	0	1	0	0	0	0	1
4_0073	1	0	0	0	0	0	0	0	0	0	1
4_0074	25	40	11	6	4	2	1	1	0	0	90
4_0075	2	0	0	0	0	0	0	0	0	0	2
4_0076	0	0	0	0	1	0	0	0	0	0	1
4_0077	0	3	0	0	0	0	0	0	0	0	3
4_0078	1	1	0	0	0	0	0	0	0	0	2
4_0079	1	0	0	0	0	0	0	0	0	0	1
4_0080	0	0	1	0	0	0	0	0	0	0	1
4_0081	0	3	2	0	0	0	0	0	0	0	5
4_0082	3	9	2	2	0	1	1	0	0	0	18
4_0083	0	1	0	0	0	0	0	0	0	0	1
4_0084	5	10	3	3	0	2	0	2	0	0	25
4_0085	9	14	2	0	0	0	0	0	0	0	25
4_0086	4	14	1	1	0	3	0	0	1	1	25
4_0087	7	16	4	2	4	4	1	0	0	0	38
4_0088	10	4	5	0	8	3	3	0	0	0	33
4_0089	1	2	0	0	1	0	0	0	0	0	4
4_0090	2	5	2	0	0	0	0	0	0	0	9
4_0091	3	8	1	0	0	0	0	0	0	0	12
4_0092	1	6	5	0	0	1	0	0	0	0	13
4_0093	1	9	3	5	0	1	0	0	0	0	19
4_0094	7	3	7	1	0	0	0	0	0	0	18
4_0095	0	1	0	0	0	0	0	0	0	0	1
4_0096	2	5	5	0	5	0	1	0	0	0	18
4_0097	3	5	6	0	3	0	2	0	0	0	19
4_0098	3	1	0	0	0	1	0	0	0	0	5
4_0099	2	0	0	0	0	0	0	0	0	0	2
4_0100	2	0	0	0	0	0	0	0	0	0	2
5_0000	4	9	6	0	14	0	1	0	0	0	34
6_0000	4	16	12	0	17	0	1	0	0	0	50
6_0001	0	0	0	0	0	1	0	0	0	0	1
7_0000	4	9	7	0	10	0	1	0	0	0	31
8_0000	0	5	0	0	0	0	0	0	0	0	5
9_0000	6	18	1	0	0	2	0	0	0	0	27
