============================================================
pggb per cluster + ML Ancestral Genome Inference Pipeline
============================================================
Output: pggb_analysis
Tool env: /home/erikg/micromamba/envs/pggb_env
Core threshold: 0.9
pggb identity: 85%
pggb segment: 2000 bp
UFBoot: 1000 reps
Checking required tools...
  All 9 tools verified.

Loading clusters...
  20 clusters

Clusters to process (20):
  Cluster 1: 577 seqs
  Cluster 20: 483 seqs
  Cluster 2: 436 seqs
  Cluster 13: 350 seqs
  Cluster 3: 348 seqs
  Cluster 15: 333 seqs
  Cluster 12: 325 seqs
  Cluster 14: 313 seqs
  Cluster 10: 293 seqs
  Cluster 16: 208 seqs
  Cluster 7: 194 seqs
  Cluster 17: 192 seqs
  Cluster 8: 181 seqs
  Cluster 4: 161 seqs
  Cluster 11: 130 seqs
  Cluster 9: 125 seqs
  Cluster 5: 119 seqs
  Cluster 18: 95 seqs
  Cluster 19: 84 seqs
  Cluster 6: 53 seqs

============================================================
Cluster 1: 577 sequences
============================================================

[1a] Extracting sequences...
  Extracted 577 sequences

[1b] Building pggb graph...

  Building pggb graph for cluster 1 (577 seqs)...

  [index 1]
    /usr/bin/samtools faidx pggb_analysis/cluster_1/cluster_1.fa

  [wfmash map 1]
    /home/erikg/micromamba/envs/pggb_env/bin/wfmash -p 85 -n 5 -k 19 -l 2000 -X -m -t 128 pggb_analysis/cluster_1/cluster_1.fa pggb_analysis/cluster_1/cluster_1.fa
    Output: 79517837 bytes

  [wfmash align 1]
    /home/erikg/micromamba/envs/pggb_env/bin/wfmash -p 85 -n 5 -k 19 -l 2000 -X -t 128 pggb_analysis/cluster_1/cluster_1.fa -i pggb_analysis/cluster_1/cluster_1.mappings.paf
    Output: 678908090 bytes

  [seqwish 1]
    /home/erikg/.cargo/bin/seqwish -s pggb_analysis/cluster_1/cluster_1.fa -p pggb_analysis/cluster_1/cluster_1.alignments.paf -k 19 -t 128 -g pggb_analysis/cluster_1/cluster_1.seqwish.gfa
    seqwish graph: 166164 segments, 577 paths

  [smoothxg 1]
    /home/erikg/micromamba/envs/pggb_env/bin/smoothxg -g pggb_analysis/cluster_1/cluster_1.seqwish.gfa -o pggb_analysis/cluster_1/cluster_1.smooth.gfa -X 100 -r 577 -t 128

  [gfaffix 1]
    /home/erikg/micromamba/envs/pggb_env/bin/gfaffix pggb_analysis/cluster_1/cluster_1.smooth.gfa
    Output: 37166275 bytes
    Final graph: 189663 segments, 8235 paths

[1c] Extracting core alignment...

  Extracting core alignment from graph...

  [odgi paths 1]
    /home/erikg/micromamba/envs/pggb_env/bin/odgi paths -i pggb_analysis/cluster_1/cluster_1.fixed.gfa -f
    Output: 32466796 bytes
    Extracted 8235 paths from graph
    Prophage paths: 577
    Unique lengths: {45061, 20493, 30734, 51225, 51231, 30751, 51233, 49185, 51238, 14376, 10283, 38961, 36915, 36917, 32821, 16447, 43071, 38975, 47175, 26697, 18507, 49231, 47187, 18520, 47195, 55387, 63579, 51295, 41056, 30815, 45156, 30822, 8297, 36974, 10350, 57456, 43128, 14457, 10368, 53379, 41092, 8330, 51345, 57490, 32916, 47259, 53404, 47262, 32935, 37031, 32941, 26799, 49327, 10421, 24762, 28871, 16585, 43212, 53455, 16592, 63699, 53462, 59606, 16598, 45273, 47322, 53470, 47335, 47339, 67820, 33006, 39152, 8435, 47347, 37120, 22787, 24838, 47367, 49418, 20749, 45334, 51483, 43292, 31003, 28958, 45345, 41256, 28980, 59703, 45370, 35132, 49478, 29004, 18773, 29019, 45405, 29021, 45408, 47465, 16746, 31086, 18800, 43377, 26998, 49527, 35194, 14724, 29067, 22930, 31129, 33182, 37280, 41378, 16803, 53671, 47529, 12714, 47531, 14765, 25012, 22974, 25022, 43454, 47554, 12740, 49609, 82383, 35281, 43480, 18905, 59866, 6621, 10717, 49629, 51683, 31207, 6639, 12783, 43503, 43506, 43524, 43526, 18953, 16915, 43541, 45597, 37407, 51745, 16944, 29242, 59971, 45641, 12874, 14923, 45647, 25167, 59988, 43608, 55910, 53863, 4710, 23148, 43629, 12914, 68223, 57985, 33416, 49801, 45705, 60052, 10901, 6815, 10912, 58021, 23206, 47792, 17077, 6838, 51909, 39622, 31432, 4810, 6861, 39631, 10966, 27355, 45789, 64222, 37599, 27361, 53989, 8933, 45801, 45803, 41713, 56050, 13046, 39670, 58105, 54015, 11013, 47882, 6923, 15117, 29454, 29455, 15123, 49940, 49942, 47902, 51999, 31518, 4898, 45859, 43813, 33576, 109366, 47927, 19256, 41783, 11063, 49987, 45892, 31559, 56135, 45897, 21326, 2895, 45904, 23377, 54098, 45906, 39762, 52048, 45910, 45911, 84824, 41815, 15217, 66422, 47991, 35710, 45957, 909, 13201, 45976, 15260, 21410, 37806, 46002, 13241, 11194, 29629, 27581, 39881, 43986, 29654, 62423, 43991, 58331, 11227, 33758, 35807, 23520, 44000, 13282, 29665, 9185, 60382, 41958, 54251, 52214, 44026, 27644, 15357, 44030, 25599, 11266, 39943, 42002, 33810, 33816, 50206, 11295, 31778, 33827, 48162, 54313, 52265, 35886, 42033, 39986, 62519, 48185, 44091, 39997, 42046, 27711, 50240, 5186, 40005, 31814, 40014, 7247, 13391, 58446, 23636, 52310, 42073, 46174, 44128, 29796, 17512, 42093, 33903, 50290, 21627, 38016, 54403, 31876, 46212, 19591, 40072, 42122, 17550, 25748, 33940, 15518, 46242, 44196, 19633, 56502, 79031, 44227, 44231, 42185, 31948, 40142, 48339, 60630, 31959, 31966, 52448, 44256, 19683, 27881, 66797, 19694, 42223, 42230, 62711, 31995, 46340, 54536, 11531, 25867, 38158, 32015, 17681, 34068, 13590, 40223, 46368, 29985, 27937, 25904, 50481, 46385, 46391, 42301, 40263, 36171, 23891, 58710, 42328, 23898, 30044, 46429, 25948, 56670, 11616, 17762, 58727, 17769, 28012, 34157, 11631, 38256, 40304, 50548, 46453, 46469, 9607, 44423, 36231, 38287, 15760, 11665, 19859, 3478, 44443, 26012, 46505, 11690, 47100, 56751, 7601, 46515, 38332, 46524, 21950, 24002, 15811, 40395, 28115, 58837, 58844, 24031, 21984, 50655, 19948, 48623, 7667, 50678, 17911, 34305, 48643, 50691, 11781, 50696, 42510, 9745, 44563, 9748, 46619, 56862, 44575, 11819, 44598, 44599, 9783, 5691, 44607, 58950, 46669, 42573, 15953, 11861, 15961, 46704, 36469, 52858, 48766, 20098, 24194, 30343, 34444, 46734, 7824, 13969, 42640, 50836, 44694, 16024, 48793, 52893, 46759, 46760, 7848, 44714, 52907, 16046, 52912, 14001, 32435, 32436, 3767, 44729, 9924, 75480, 26333, 57055, 87776, 24291, 42723, 42729, 46830, 46831, 59118, 63219, 16116, 34548, 52987, 46851, 32516, 14086, 24328, 24338, 53014, 32541, 48925, 16166, 42791, 36657, 40758, 30519, 46906, 5960, 51022, 87891, 55124, 20311, 40792, 61275, 57197, 32623, 38770, 40823, 14203, 34690, 36741, 8086, 47011, 55204, 42923, 8111, 16309, 55224, 12218, 59323, 42944, 16321, 22468, 12234, 32726, 16345, 47065, 45020, 24543, 40928, 57320, 18412, 26614, 36856, 24572}
    Variable lengths: {45061, 20493, 30734, 51225, 51231, 30751, 51233, 49185, 51238, 14376, 10283, 38961, 36915, 36917, 32821, 16447, 43071, 38975, 47175, 26697, 18507, 49231, 47187, 18520, 47195, 55387, 63579, 51295, 41056, 30815, 45156, 30822, 8297, 36974, 10350, 57456, 43128, 14457, 10368, 53379, 41092, 8330, 51345, 57490, 32916, 47259, 53404, 47262, 32935, 37031, 32941, 26799, 49327, 10421, 24762, 28871, 16585, 43212, 53455, 16592, 63699, 53462, 59606, 16598, 45273, 47322, 53470, 47335, 47339, 67820, 33006, 39152, 8435, 47347, 37120, 22787, 24838, 47367, 49418, 20749, 45334, 51483, 43292, 31003, 28958, 45345, 41256, 28980, 59703, 45370, 35132, 49478, 29004, 18773, 29019, 45405, 29021, 45408, 47465, 16746, 31086, 18800, 43377, 26998, 49527, 35194, 14724, 29067, 22930, 31129, 33182, 37280, 41378, 16803, 53671, 47529, 12714, 47531, 14765, 25012, 22974, 25022, 43454, 47554, 12740, 49609, 82383, 35281, 43480, 18905, 59866, 6621, 10717, 49629, 51683, 31207, 6639, 12783, 43503, 43506, 43524, 43526, 18953, 16915, 43541, 45597, 37407, 51745, 16944, 29242, 59971, 45641, 12874, 14923, 45647, 25167, 59988, 43608, 55910, 53863, 4710, 23148, 43629, 12914, 68223, 57985, 33416, 49801, 45705, 60052, 10901, 6815, 10912, 58021, 23206, 47792, 17077, 6838, 51909, 39622, 31432, 4810, 6861, 39631, 10966, 27355, 45789, 64222, 37599, 27361, 53989, 8933, 45801, 45803, 41713, 56050, 13046, 39670, 58105, 54015, 11013, 47882, 6923, 15117, 29454, 29455, 15123, 49940, 49942, 47902, 51999, 31518, 4898, 45859, 43813, 33576, 109366, 47927, 19256, 41783, 11063, 49987, 45892, 31559, 56135, 45897, 21326, 2895, 45904, 23377, 54098, 45906, 39762, 52048, 45910, 45911, 84824, 41815, 15217, 66422, 47991, 35710, 45957, 909, 13201, 45976, 15260, 21410, 37806, 46002, 13241, 11194, 29629, 27581, 39881, 43986, 29654, 62423, 43991, 58331, 11227, 33758, 35807, 23520, 44000, 13282, 29665, 9185, 60382, 41958, 54251, 52214, 44026, 27644, 15357, 44030, 25599, 11266, 39943, 42002, 33810, 33816, 50206, 11295, 31778, 33827, 48162, 54313, 52265, 35886, 42033, 39986, 62519, 48185, 44091, 39997, 42046, 27711, 50240, 5186, 40005, 31814, 40014, 7247, 13391, 58446, 23636, 52310, 42073, 46174, 44128, 29796, 17512, 42093, 33903, 50290, 21627, 38016, 54403, 31876, 46212, 19591, 40072, 42122, 17550, 25748, 33940, 15518, 46242, 44196, 19633, 56502, 79031, 44227, 44231, 42185, 31948, 40142, 48339, 60630, 31959, 31966, 52448, 44256, 19683, 27881, 66797, 19694, 42223, 42230, 62711, 31995, 46340, 54536, 11531, 25867, 38158, 32015, 17681, 34068, 13590, 40223, 46368, 29985, 27937, 25904, 50481, 46385, 46391, 42301, 40263, 36171, 23891, 58710, 42328, 23898, 30044, 46429, 25948, 56670, 11616, 17762, 58727, 17769, 28012, 34157, 11631, 38256, 40304, 50548, 46453, 46469, 9607, 44423, 36231, 38287, 15760, 11665, 19859, 3478, 44443, 26012, 46505, 11690, 47100, 56751, 7601, 46515, 38332, 46524, 21950, 24002, 15811, 40395, 28115, 58837, 58844, 24031, 21984, 50655, 19948, 48623, 7667, 50678, 17911, 34305, 48643, 50691, 11781, 50696, 42510, 9745, 44563, 9748, 46619, 56862, 44575, 11819, 44598, 44599, 9783, 5691, 44607, 58950, 46669, 42573, 15953, 11861, 15961, 46704, 36469, 52858, 48766, 20098, 24194, 30343, 34444, 46734, 7824, 13969, 42640, 50836, 44694, 16024, 48793, 52893, 46759, 46760, 7848, 44714, 52907, 16046, 52912, 14001, 32435, 32436, 3767, 44729, 9924, 75480, 26333, 57055, 87776, 24291, 42723, 42729, 46830, 46831, 59118, 63219, 16116, 34548, 52987, 46851, 32516, 14086, 24328, 24338, 53014, 32541, 48925, 16166, 42791, 36657, 40758, 30519, 46906, 5960, 51022, 87891, 55124, 20311, 40792, 61275, 57197, 32623, 38770, 40823, 14203, 34690, 36741, 8086, 47011, 55204, 42923, 8111, 16309, 55224, 12218, 59323, 42944, 16321, 22468, 12234, 32726, 16345, 47065, 45020, 24543, 40928, 57320, 18412, 26614, 36856, 24572} - aligning with MAFFT...

  [mafft 1]
    /home/erikg/micromamba/envs/pggb_env/bin/mafft --auto --thread 64 pggb_analysis/cluster_1/cluster_1.paths.fa
